4000.04268	0.99966
3998.11402	0.99974
3996.18536	0.99984
3994.25670	0.99989
3992.32804	0.99983
3990.39938	0.99972
3988.47072	0.99968
3986.54206	0.99968
3984.61340	0.99965
3982.68474	0.99965
3980.75607	0.99971
3978.82741	0.99981
3976.89875	0.99987
3974.97009	0.99987
3973.04143	0.99987
3971.11277	0.99996
3969.18411	1.00008
3967.25545	1.00007
3965.32679	0.99994
3963.39813	0.99982
3961.46947	0.99980
3959.54080	0.99981
3957.61214	0.99977
3955.68348	0.99977
3953.75482	0.99982
3951.82616	0.99983
3949.89750	0.99985
3947.96884	0.99994
3946.04018	0.99996
3944.11152	0.99988
3942.18286	0.99977
3940.25420	0.99974
3938.32553	0.99980
3936.39687	0.99993
3934.46821	1.00009
3932.53955	1.00013
3930.61089	1.00000
3928.68223	0.99992
3926.75357	0.99997
3924.82491	1.00001
3922.89625	1.00000
3920.96759	1.00003
3919.03893	1.00006
3917.11026	0.99998
3915.18160	0.99988
3913.25294	0.99985
3911.32428	0.99991
3909.39562	1.00001
3907.46696	1.00009
3905.53830	1.00010
3903.60964	0.99997
3901.68098	0.99979
3899.75232	0.99967
3897.82366	0.99967
3895.89500	0.99976
3893.96633	0.99993
3892.03767	1.00001
3890.10901	0.99992
3888.18035	0.99980
3886.25169	0.99982
3884.32303	0.99992
3882.39437	0.99996
3880.46571	0.99997
3878.53705	0.99998
3876.60839	1.00002
3874.67973	1.00010
3872.75106	1.00013
3870.82240	1.00009
3868.89374	1.00001
3866.96508	0.99997
3865.03642	0.99997
3863.10776	0.99997
3861.17910	0.99996
3859.25044	0.99996
3857.32178	0.99999
3855.39312	1.00008
3853.46446	1.00016
3851.53579	1.00007
3849.60713	0.99999
3847.67847	1.00002
3845.74981	1.00008
3843.82115	1.00006
3841.89249	0.99998
3839.96383	0.99996
3838.03517	1.00001
3836.10651	1.00006
3834.17785	1.00006
3832.24919	1.00000
3830.32052	0.99998
3828.39186	0.99996
3826.46320	0.99989
3824.53454	0.99994
3822.60588	1.00017
3820.67722	1.00030
3818.74856	1.00016
3816.81990	1.00001
3814.89124	0.99992
3812.96258	0.99986
3811.03392	0.99984
3809.10526	0.99988
3807.17659	0.99992
3805.24793	0.99995
3803.31927	1.00003
3801.39061	1.00011
3799.46195	1.00001
3797.53329	0.99986
3795.60463	0.99984
3793.67597	0.99990
3791.74731	0.99992
3789.81865	0.99997
3787.88999	1.00009
3785.96132	1.00014
3784.03266	1.00000
3782.10400	0.99983
3780.17534	0.99976
3778.24668	0.99973
3776.31802	0.99971
3774.38936	0.99978
3772.46070	0.99990
3770.53204	0.99996
3768.60338	0.99998
3766.67472	1.00001
3764.74605	0.99999
3762.81739	0.99995
3760.88873	0.99994
3758.96007	0.99991
3757.03141	0.99989
3755.10275	0.99992
3753.17409	1.00000
3751.24543	1.00007
3749.31677	1.00008
3747.38811	1.00006
3745.45945	1.00000
3743.53078	0.99990
3741.60212	0.99989
3739.67346	0.99998
3737.74480	1.00009
3735.81614	1.00011
3733.88748	1.00008
3731.95882	1.00016
3730.03016	1.00029
3728.10150	1.00036
3726.17284	1.00035
3724.24418	1.00028
3722.31552	1.00016
3720.38685	1.00006
3718.45819	1.00002
3716.52953	0.99998
3714.60087	0.99996
3712.67221	1.00002
3710.74355	1.00006
3708.81489	0.99997
3706.88623	0.99984
3704.95757	0.99976
3703.02891	0.99975
3701.10025	0.99982
3699.17158	0.99988
3697.24292	0.99987
3695.31426	0.99986
3693.38560	0.99992
3691.45694	0.99999
3689.52828	0.99994
3687.59962	0.99986
3685.67096	0.99986
3683.74230	0.99987
3681.81364	0.99984
3679.88498	0.99984
3677.95631	0.99993
3676.02765	1.00002
3674.09899	1.00002
3672.17033	1.00001
3670.24167	1.00000
3668.31301	0.99993
3666.38435	0.99988
3664.45569	0.99984
3662.52703	0.99977
3660.59837	0.99973
3658.66971	0.99977
3656.74104	0.99986
3654.81238	0.99999
3652.88372	1.00013
3650.95506	1.00026
3649.02640	1.00028
3647.09774	1.00018
3645.16908	1.00002
3643.24042	0.99989
3641.31176	0.99981
3639.38310	0.99980
3637.45444	0.99988
3635.52578	1.00003
3633.59711	1.00019
3631.66845	1.00029
3629.73979	1.00031
3627.81113	1.00019
3625.88247	1.00001
3623.95381	0.99993
3622.02515	1.00002
3620.09649	1.00024
3618.16783	1.00037
3616.23917	1.00032
3614.31051	1.00019
3612.38184	1.00002
3610.45318	0.99988
3608.52452	0.99984
3606.59586	0.99988
3604.66720	0.99994
3602.73854	1.00001
3600.80988	1.00005
3598.88122	1.00004
3596.95256	0.99997
3595.02390	0.99989
3593.09524	0.99983
3591.16657	0.99984
3589.23791	0.99994
3587.30925	1.00000
3585.38059	0.99994
3583.45193	0.99989
3581.52327	0.99991
3579.59461	0.99990
3577.66595	0.99983
3575.73729	0.99980
3573.80863	0.99990
3571.87997	1.00001
3569.95130	1.00004
3568.02264	1.00004
3566.09398	0.99996
3564.16532	0.99986
3562.23666	0.99985
3560.30800	0.99992
3558.37934	0.99993
3556.45068	0.99990
3554.52202	0.99994
3552.59336	1.00001
3550.66470	1.00001
3548.73604	0.99994
3546.80737	0.99984
3544.87871	0.99979
3542.95005	0.99981
3541.02139	0.99981
3539.09273	0.99976
3537.16407	0.99974
3535.23541	0.99977
3533.30675	0.99980
3531.37809	0.99982
3529.44943	0.99985
3527.52077	0.99990
3525.59210	0.99995
3523.66344	0.99995
3521.73478	0.99992
3519.80612	0.99994
3517.87746	0.99990
3515.94880	0.99976
3514.02014	0.99967
3512.09148	0.99969
3510.16282	0.99973
3508.23416	0.99980
3506.30550	0.99994
3504.37683	1.00004
3502.44817	1.00006
3500.51951	1.00005
3498.59085	0.99998
3496.66219	0.99985
3494.73353	0.99979
3492.80487	0.99987
3490.87621	0.99999
3488.94755	1.00001
3487.01889	0.99995
3485.09023	0.99989
3483.16156	0.99985
3481.23290	0.99982
3479.30424	0.99981
3477.37558	0.99983
3475.44692	0.99987
3473.51826	0.99993
3471.58960	1.00000
3469.66094	1.00001
3467.73228	0.99992
3465.80362	0.99979
3463.87496	0.99969
3461.94630	0.99965
3460.01763	0.99963
3458.08897	0.99961
3456.16031	0.99961
3454.23165	0.99965
3452.30299	0.99968
3450.37433	0.99967
3448.44567	0.99965
3446.51701	0.99961
3444.58835	0.99959
3442.65969	0.99960
3440.73103	0.99960
3438.80236	0.99958
3436.87370	0.99959
3434.94504	0.99968
3433.01638	0.99980
3431.08772	0.99986
3429.15906	0.99991
3427.23040	0.99994
3425.30174	0.99991
3423.37308	0.99983
3421.44442	0.99976
3419.51576	0.99972
3417.58709	0.99974
3415.65843	0.99978
3413.72977	0.99984
3411.80111	0.99987
3409.87245	0.99983
3407.94379	0.99974
3406.01513	0.99970
3404.08647	0.99972
3402.15781	0.99973
3400.22915	0.99969
3398.30049	0.99968
3396.37182	0.99974
3394.44316	0.99979
3392.51450	0.99977
3390.58584	0.99971
3388.65718	0.99972
3386.72852	0.99976
3384.79986	0.99975
3382.87120	0.99972
3380.94254	0.99972
3379.01388	0.99968
3377.08522	0.99962
3375.15656	0.99967
3373.22789	0.99978
3371.29923	0.99983
3369.37057	0.99982
3367.44191	0.99977
3365.51325	0.99974
3363.58459	0.99974
3361.65593	0.99976
3359.72727	0.99976
3357.79861	0.99968
3355.86995	0.99960
3353.94129	0.99958
3352.01262	0.99959
3350.08396	0.99959
3348.15530	0.99961
3346.22664	0.99963
3344.29798	0.99962
3342.36932	0.99964
3340.44066	0.99967
3338.51200	0.99964
3336.58334	0.99964
3334.65468	0.99968
3332.72602	0.99964
3330.79735	0.99956
3328.86869	0.99953
3326.94003	0.99960
3325.01137	0.99971
3323.08271	0.99979
3321.15405	0.99982
3319.22539	0.99983
3317.29673	0.99978
3315.36807	0.99967
3313.43941	0.99957
3311.51075	0.99954
3309.58208	0.99957
3307.65342	0.99961
3305.72476	0.99966
3303.79610	0.99969
3301.86744	0.99964
3299.93878	0.99957
3298.01012	0.99957
3296.08146	0.99961
3294.15280	0.99959
3292.22414	0.99961
3290.29548	0.99970
3288.36682	0.99978
3286.43815	0.99981
3284.50949	0.99984
3282.58083	0.99987
3280.65217	0.99988
3278.72351	0.99986
3276.79485	0.99981
3274.86619	0.99968
3272.93753	0.99954
3271.00887	0.99955
3269.08021	0.99960
3267.15155	0.99951
3265.22288	0.99941
3263.29422	0.99945
3261.36556	0.99959
3259.43690	0.99971
3257.50824	0.99971
3255.57958	0.99954
3253.65092	0.99941
3251.72226	0.99949
3249.79360	0.99963
3247.86494	0.99962
3245.93628	0.99953
3244.00761	0.99948
3242.07895	0.99956
3240.15029	0.99965
3238.22163	0.99965
3236.29297	0.99957
3234.36431	0.99948
3232.43565	0.99944
3230.50699	0.99942
3228.57833	0.99943
3226.64967	0.99949
3224.72101	0.99962
3222.79234	0.99975
3220.86368	0.99981
3218.93502	0.99979
3217.00636	0.99973
3215.07770	0.99967
3213.14904	0.99965
3211.22038	0.99970
3209.29172	0.99977
3207.36306	0.99973
3205.43440	0.99959
3203.50574	0.99951
3201.57708	0.99956
3199.64841	0.99971
3197.71975	0.99982
3195.79109	0.99980
3193.86243	0.99975
3191.93377	0.99978
3190.00511	0.99982
3188.07645	0.99981
3186.14779	0.99978
3184.21913	0.99973
3182.29047	0.99971
3180.36181	0.99978
3178.43314	0.99986
3176.50448	0.99986
3174.57582	0.99980
3172.64716	0.99974
3170.71850	0.99972
3168.78984	0.99972
3166.86118	0.99971
3164.93252	0.99971
3163.00386	0.99976
3161.07520	0.99979
3159.14654	0.99978
3157.21787	0.99979
3155.28921	0.99983
3153.36055	0.99987
3151.43189	0.99989
3149.50323	0.99986
3147.57457	0.99979
3145.64591	0.99975
3143.71725	0.99972
3141.78859	0.99972
3139.85993	0.99975
3137.93127	0.99978
3136.00260	0.99975
3134.07394	0.99970
3132.14528	0.99968
3130.21662	0.99970
3128.28796	0.99973
3126.35930	0.99977
3124.43064	0.99979
3122.50198	0.99980
3120.57332	0.99986
3118.64466	0.99994
3116.71600	0.99995
3114.78734	0.99988
3112.85867	0.99980
3110.93001	0.99979
3109.00135	0.99985
3107.07269	0.99991
3105.14403	0.99992
3103.21537	0.99986
3101.28671	0.99980
3099.35805	0.99979
3097.42939	0.99981
3095.50073	0.99980
3093.57207	0.99978
3091.64340	0.99983
3089.71474	0.99990
3087.78608	0.99991
3085.85742	0.99989
3083.92876	0.99986
3082.00010	0.99986
3080.07144	0.99987
3078.14278	0.99988
3076.21412	0.99991
3074.28546	0.99996
3072.35680	0.99996
3070.42813	0.99995
3068.49947	0.99995
3066.57081	0.99996
3064.64215	0.99997
3062.71349	0.99995
3060.78483	0.99992
3058.85617	0.99990
3056.92751	0.99989
3054.99885	0.99988
3053.07019	0.99988
3051.14153	0.99988
3049.21286	0.99990
3047.28420	0.99995
3045.35554	0.99996
3043.42688	0.99992
3041.49822	0.99991
3039.56956	0.99993
3037.64090	0.99994
3035.71224	0.99994
3033.78358	0.99992
3031.85492	0.99992
3029.92626	0.99996
3027.99760	0.99996
3026.06893	0.99993
3024.14027	0.99993
3022.21161	0.99998
3020.28295	1.00000
3018.35429	0.99995
3016.42563	0.99986
3014.49697	0.99984
3012.56831	0.99991
3010.63965	0.99999
3008.71099	1.00001
3006.78233	0.99998
3004.85366	0.99993
3002.92500	0.99992
3000.99634	0.99992
2999.06768	0.99988
2997.13902	0.99988
2995.21036	0.99990
2993.28170	0.99991
2991.35304	0.99990
2989.42438	0.99986
2987.49572	0.99982
2985.56706	0.99986
2983.63839	0.99993
2981.70973	0.99993
2979.78107	0.99990
2977.85241	0.99991
2975.92375	0.99997
2973.99509	1.00004
2972.06643	1.00007
2970.13777	1.00002
2968.20911	0.99994
2966.28045	0.99991
2964.35179	0.99995
2962.42313	0.99995
2960.49446	0.99993
2958.56580	0.99993
2956.63714	0.99995
2954.70848	0.99998
2952.77982	1.00000
2950.85116	1.00000
2948.92250	0.99995
2946.99384	0.99989
2945.06518	0.99988
2943.13652	0.99993
2941.20786	0.99999
2939.27919	1.00000
2937.35053	0.99995
2935.42187	0.99989
2933.49321	0.99987
2931.56455	0.99988
2929.63589	0.99989
2927.70723	0.99990
2925.77857	0.99988
2923.84991	0.99985
2921.92125	0.99987
2919.99259	0.99992
2918.06392	0.99997
2916.13526	1.00000
2914.20660	0.99997
2912.27794	0.99990
2910.34928	0.99988
2908.42062	0.99991
2906.49196	0.99992
2904.56330	0.99992
2902.63464	0.99996
2900.70598	1.00000
2898.77732	1.00002
2896.84865	1.00002
2894.91999	1.00000
2892.99133	0.99998
2891.06267	0.99996
2889.13401	0.99996
2887.20535	0.99995
2885.27669	0.99993
2883.34803	0.99992
2881.41937	0.99992
2879.49071	0.99992
2877.56205	0.99991
2875.63339	0.99989
2873.70472	0.99989
2871.77606	0.99991
2869.84740	0.99992
2867.91874	0.99989
2865.99008	0.99985
2864.06142	0.99987
2862.13276	0.99993
2860.20410	0.99992
2858.27544	0.99988
2856.34678	0.99988
2854.41812	0.99987
2852.48945	0.99986
2850.56079	0.99988
2848.63213	0.99992
2846.70347	0.99991
2844.77481	0.99986
2842.84615	0.99984
2840.91749	0.99984
2838.98883	0.99984
2837.06017	0.99987
2835.13151	0.99994
2833.20285	0.99995
2831.27418	0.99989
2829.34552	0.99987
2827.41686	0.99990
2825.48820	0.99992
2823.55954	0.99990
2821.63088	0.99992
2819.70222	0.99997
2817.77356	0.99999
2815.84490	0.99997
2813.91624	0.99996
2811.98758	0.99993
2810.05891	0.99989
2808.13025	0.99986
2806.20159	0.99987
2804.27293	0.99994
2802.34427	1.00001
2800.41561	1.00001
2798.48695	0.99996
2796.55829	0.99988
2794.62963	0.99982
2792.70097	0.99980
2790.77231	0.99979
2788.84365	0.99979
2786.91498	0.99981
2784.98632	0.99984
2783.05766	0.99987
2781.12900	0.99987
2779.20034	0.99986
2777.27168	0.99986
2775.34302	0.99986
2773.41436	0.99982
2771.48570	0.99978
2769.55704	0.99981
2767.62838	0.99984
2765.69971	0.99985
2763.77105	0.99987
2761.84239	0.99988
2759.91373	0.99988
2757.98507	0.99991
2756.05641	0.99997
2754.12775	0.99999
2752.19909	0.99997
2750.27043	0.99994
2748.34177	0.99992
2746.41311	0.99991
2744.48444	0.99992
2742.55578	0.99995
2740.62712	0.99996
2738.69846	0.99993
2736.76980	0.99989
2734.84114	0.99991
2732.91248	0.99994
2730.98382	0.99996
2729.05516	0.99993
2727.12650	0.99989
2725.19784	0.99988
2723.26917	0.99990
2721.34051	0.99991
2719.41185	0.99988
2717.48319	0.99984
2715.55453	0.99985
2713.62587	0.99988
2711.69721	0.99990
2709.76855	0.99992
2707.83989	0.99996
2705.91123	0.99996
2703.98257	0.99991
2702.05391	0.99990
2700.12524	0.99994
2698.19658	0.99998
2696.26792	0.99998
2694.33926	0.99995
2692.41060	0.99990
2690.48194	0.99988
2688.55328	0.99987
2686.62462	0.99986
2684.69596	0.99989
2682.76730	0.99992
2680.83864	0.99993
2678.90997	0.99991
2676.98131	0.99990
2675.05265	0.99996
2673.12399	1.00002
2671.19533	1.00002
2669.26667	0.99998
2667.33801	0.99993
2665.40935	0.99989
2663.48069	0.99986
2661.55203	0.99986
2659.62337	0.99989
2657.69470	0.99990
2655.76604	0.99990
2653.83738	0.99991
2651.90872	0.99993
2649.98006	0.99997
2648.05140	0.99998
2646.12274	0.99993
2644.19408	0.99987
2642.26542	0.99984
2640.33676	0.99982
2638.40810	0.99981
2636.47943	0.99983
2634.55077	0.99989
2632.62211	0.99992
2630.69345	0.99992
2628.76479	0.99991
2626.83613	0.99992
2624.90747	0.99993
2622.97881	0.99990
2621.05015	0.99989
2619.12149	0.99991
2617.19283	0.99994
2615.26417	0.99993
2613.33550	0.99988
2611.40684	0.99983
2609.47818	0.99979
2607.54952	0.99978
2605.62086	0.99983
2603.69220	0.99987
2601.76354	0.99989
2599.83488	0.99991
2597.90622	0.99992
2595.97756	0.99990
2594.04890	0.99988
2592.12023	0.99990
2590.19157	0.99996
2588.26291	0.99997
2586.33425	0.99993
2584.40559	0.99992
2582.47693	0.99994
2580.54827	0.99992
2578.61961	0.99985
2576.69095	0.99981
2574.76229	0.99984
2572.83363	0.99986
2570.90496	0.99987
2568.97630	0.99990
2567.04764	0.99993
2565.11898	0.99995
2563.19032	0.99995
2561.26166	0.99995
2559.33300	0.99994
2557.40434	0.99990
2555.47568	0.99986
2553.54702	0.99986
2551.61836	0.99986
2549.68969	0.99984
2547.76103	0.99985
2545.83237	0.99989
2543.90371	0.99991
2541.97505	0.99990
2540.04639	0.99987
2538.11773	0.99984
2536.18907	0.99981
2534.26041	0.99979
2532.33175	0.99978
2530.40309	0.99978
2528.47443	0.99984
2526.54576	0.99987
2524.61710	0.99987
2522.68844	0.99986
2520.75978	0.99987
2518.83112	0.99989
2516.90246	0.99992
2514.97380	0.99995
2513.04514	0.99997
2511.11648	0.99994
2509.18782	0.99989
2507.25916	0.99988
2505.33049	0.99988
2503.40183	0.99988
2501.47317	0.99991
2499.54451	0.99996
2497.61585	0.99996
2495.68719	0.99990
2493.75853	0.99984
2491.82987	0.99983
2489.90121	0.99987
2487.97255	0.99992
2486.04389	0.99994
2484.11522	0.99994
2482.18656	0.99996
2480.25790	0.99999
2478.32924	1.00003
2476.40058	1.00006
2474.47192	1.00003
2472.54326	0.99993
2470.61460	0.99988
2468.68594	0.99990
2466.75728	0.99991
2464.82862	0.99987
2462.89995	0.99984
2460.97129	0.99986
2459.04263	0.99992
2457.11397	0.99997
2455.18531	1.00000
2453.25665	0.99999
2451.32799	0.99997
2449.39933	1.00000
2447.47067	1.00002
2445.54201	0.99999
2443.61335	0.99996
2441.68469	0.99991
2439.75602	0.99984
2437.82736	0.99982
2435.89870	0.99990
2433.97004	0.99996
2432.04138	0.99997
2430.11272	0.99999
2428.18406	1.00002
2426.25540	0.99999
2424.32674	0.99991
2422.39808	0.99985
2420.46942	0.99983
2418.54075	0.99986
2416.61209	0.99990
2414.68343	0.99990
2412.75477	0.99991
2410.82611	0.99993
2408.89745	0.99992
2406.96879	0.99989
2405.04013	0.99988
2403.11147	0.99992
2401.18281	0.99995
2399.25415	0.99993
2397.32548	0.99988
2395.39682	0.99989
2393.46816	0.99992
2391.53950	0.99990
2389.61084	0.99986
2387.68218	0.99985
2385.75352	0.99989
2383.82486	0.99997
2381.89620	1.00007
2379.96754	1.00014
2378.03888	1.00017
2376.11021	1.00020
2374.18155	1.00027
2372.25289	1.00033
2370.32423	1.00034
2368.39557	1.00038
2366.46691	1.00053
2364.53825	1.00061
2362.60959	1.00054
2360.68093	1.00049
2358.75227	1.00052
2356.82361	1.00047
2354.89495	1.00038
2352.96628	1.00039
2351.03762	1.00043
2349.10896	1.00044
2347.18030	1.00044
2345.25164	1.00048
2343.32298	1.00049
2341.39432	1.00049
2339.46566	1.00050
2337.53700	1.00048
2335.60834	1.00045
2333.67968	1.00044
2331.75101	1.00041
2329.82235	1.00039
2327.89369	1.00039
2325.96503	1.00037
2324.03637	1.00036
2322.10771	1.00042
2320.17905	1.00043
2318.25039	1.00031
2316.32173	1.00020
2314.39307	1.00017
2312.46441	1.00020
2310.53574	1.00023
2308.60708	1.00021
2306.67842	1.00017
2304.74976	1.00012
2302.82110	1.00008
2300.89244	1.00004
2298.96378	0.99998
2297.03512	0.99994
2295.10646	0.99997
2293.17780	0.99999
2291.24914	1.00000
2289.32047	1.00001
2287.39181	0.99999
2285.46315	0.99995
2283.53449	0.99993
2281.60583	0.99991
2279.67717	0.99992
2277.74851	0.99995
2275.81985	0.99997
2273.89119	1.00000
2271.96253	1.00002
2270.03387	0.99996
2268.10521	0.99989
2266.17654	0.99989
2264.24788	0.99992
2262.31922	0.99995
2260.39056	0.99997
2258.46190	0.99996
2256.53324	0.99992
2254.60458	0.99991
2252.67592	0.99995
2250.74726	0.99997
2248.81860	0.99996
2246.88994	0.99997
2244.96127	0.99998
2243.03261	0.99998
2241.10395	0.99994
2239.17529	0.99992
2237.24663	0.99992
2235.31797	0.99993
2233.38931	0.99991
2231.46065	0.99990
2229.53199	0.99991
2227.60333	0.99992
2225.67467	0.99994
2223.74600	0.99996
2221.81734	0.99996
2219.88868	0.99997
2217.96002	0.99998
2216.03136	0.99997
2214.10270	0.99995
2212.17404	0.99993
2210.24538	0.99992
2208.31672	0.99989
2206.38806	0.99985
2204.45940	0.99985
2202.53073	0.99988
2200.60207	0.99991
2198.67341	0.99994
2196.74475	0.99995
2194.81609	0.99995
2192.88743	0.99997
2190.95877	0.99997
2189.03011	0.99993
2187.10145	0.99990
2185.17279	0.99990
2183.24413	0.99992
2181.31547	0.99994
2179.38680	0.99992
2177.45814	0.99987
2175.52948	0.99986
2173.60082	0.99987
2171.67216	0.99988
2169.74350	0.99988
2167.81484	0.99987
2165.88618	0.99986
2163.95752	0.99987
2162.02886	0.99989
2160.10020	0.99988
2158.17153	0.99984
2156.24287	0.99982
2154.31421	0.99986
2152.38555	0.99992
2150.45689	0.99994
2148.52823	0.99993
2146.59957	0.99993
2144.67091	0.99992
2142.74225	0.99988
2140.81359	0.99984
2138.88493	0.99986
2136.95626	0.99990
2135.02760	0.99995
2133.09894	0.99998
2131.17028	0.99998
2129.24162	0.99997
2127.31296	0.99995
2125.38430	0.99990
2123.45564	0.99985
2121.52698	0.99985
2119.59832	0.99989
2117.66966	0.99990
2115.74099	0.99988
2113.81233	0.99989
2111.88367	0.99993
2109.95501	0.99997
2108.02635	0.99998
2106.09769	0.99997
2104.16903	0.99996
2102.24037	0.99994
2100.31171	0.99994
2098.38305	0.99992
2096.45439	0.99993
2094.52573	0.99996
2092.59706	0.99998
2090.66840	0.99994
2088.73974	0.99989
2086.81108	0.99991
2084.88242	0.99996
2082.95376	0.99996
2081.02510	0.99992
2079.09644	0.99991
2077.16778	0.99993
2075.23912	0.99996
2073.31046	0.99996
2071.38179	0.99996
2069.45313	0.99995
2067.52447	0.99988
2065.59581	0.99982
2063.66715	0.99982
2061.73849	0.99984
2059.80983	0.99985
2057.88117	0.99986
2055.95251	0.99989
2054.02385	0.99993
2052.09519	0.99996
2050.16652	0.99995
2048.23786	0.99995
2046.30920	0.99995
2044.38054	0.99991
2042.45188	0.99987
2040.52322	0.99986
2038.59456	0.99986
2036.66590	0.99989
2034.73724	0.99992
2032.80858	0.99995
2030.87992	0.99997
2028.95125	0.99996
2027.02259	0.99993
2025.09393	0.99986
2023.16527	0.99984
2021.23661	0.99986
2019.30795	0.99988
2017.37929	0.99988
2015.45063	0.99986
2013.52197	0.99985
2011.59331	0.99987
2009.66465	0.99989
2007.73599	0.99987
2005.80732	0.99984
2003.87866	0.99981
2001.95000	0.99983
2000.02134	0.99987
1998.09268	0.99987
1996.16402	0.99984
1994.23536	0.99984
1992.30670	0.99989
1990.37804	0.99995
1988.44938	0.99996
1986.52072	0.99993
1984.59205	0.99986
1982.66339	0.99982
1980.73473	0.99985
1978.80607	0.99991
1976.87741	0.99993
1974.94875	0.99989
1973.02009	0.99985
1971.09143	0.99988
1969.16277	0.99993
1967.23411	0.99992
1965.30545	0.99988
1963.37678	0.99988
1961.44812	0.99991
1959.51946	0.99990
1957.59080	0.99988
1955.66214	0.99990
1953.73348	0.99991
1951.80482	0.99990
1949.87616	0.99989
1947.94750	0.99988
1946.01884	0.99991
1944.09018	0.99999
1942.16151	1.00004
1940.23285	1.00001
1938.30419	0.99997
1936.37553	0.99995
1934.44687	0.99991
1932.51821	0.99985
1930.58955	0.99983
1928.66089	0.99984
1926.73223	0.99987
1924.80357	0.99990
1922.87491	0.99991
1920.94625	0.99990
1919.01758	0.99993
1917.08892	0.99998
1915.16026	0.99998
1913.23160	0.99995
1911.30294	0.99992
1909.37428	0.99992
1907.44562	0.99993
1905.51696	0.99993
1903.58830	0.99994
1901.65964	0.99995
1899.73098	0.99995
1897.80231	0.99995
1895.87365	0.99994
1893.94499	0.99989
1892.01633	0.99986
1890.08767	0.99985
1888.15901	0.99984
1886.23035	0.99983
1884.30169	0.99987
1882.37303	0.99992
1880.44437	0.99991
1878.51571	0.99990
1876.58704	0.99991
1874.65838	0.99996
1872.72972	1.00000
1870.80106	1.00002
1868.87240	1.00004
1866.94374	1.00003
1865.01508	1.00001
1863.08642	1.00000
1861.15776	0.99996
1859.22910	0.99991
1857.30044	0.99990
1855.37177	0.99990
1853.44311	0.99986
1851.51445	0.99982
1849.58579	0.99984
1847.65713	0.99991
1845.72847	0.99998
1843.79981	1.00003
1841.87115	1.00001
1839.94249	0.99994
1838.01383	0.99990
1836.08517	0.99990
1834.15651	0.99992
1832.22784	0.99997
1830.29918	1.00001
1828.37052	0.99998
1826.44186	0.99994
1824.51320	0.99993
1822.58454	0.99992
1820.65588	0.99989
1818.72722	0.99992
1816.79856	0.99997
1814.86990	0.99998
1812.94124	0.99994
1811.01257	0.99990
1809.08391	0.99987
1807.15525	0.99986
1805.22659	0.99987
1803.29793	0.99993
1801.36927	1.00000
1799.44061	1.00003
1797.51195	1.00007
1795.58329	1.00013
1793.65463	1.00015
1791.72597	1.00006
1789.79730	0.99996
1787.86864	0.99993
1785.93998	0.99995
1784.01132	0.99996
1782.08266	0.99998
1780.15400	0.99998
1778.22534	0.99996
1776.29668	0.99997
1774.36802	1.00003
1772.43936	1.00007
1770.51070	1.00005
1768.58203	1.00005
1766.65337	1.00004
1764.72471	1.00001
1762.79605	1.00000
1760.86739	1.00001
1758.93873	1.00002
1757.01007	1.00005
1755.08141	1.00004
1753.15275	1.00002
1751.22409	1.00006
1749.29543	1.00012
1747.36677	1.00014
1745.43810	1.00012
1743.50944	1.00010
1741.58078	1.00011
1739.65212	1.00011
1737.72346	1.00006
1735.79480	1.00005
1733.86614	1.00010
1731.93748	1.00011
1730.00882	1.00005
1728.08016	0.99999
1726.15150	0.99996
1724.22283	0.99993
1722.29417	0.99990
1720.36551	0.99990
1718.43685	0.99996
1716.50819	1.00007
1714.57953	1.00009
1712.65087	1.00006
1710.72221	1.00006
1708.79355	1.00012
1706.86489	1.00020
1704.93623	1.00025
1703.00756	1.00027
1701.07890	1.00032
1699.15024	1.00029
1697.22158	1.00018
1695.29292	1.00007
1693.36426	1.00000
1691.43560	1.00000
1689.50694	1.00004
1687.57828	1.00006
1685.64962	1.00010
1683.72096	1.00012
1681.79229	1.00007
1679.86363	1.00003
1677.93497	1.00005
1676.00631	1.00007
1674.07765	1.00004
1672.14899	1.00002
1670.22033	1.00008
1668.29167	1.00007
1666.36301	1.00001
1664.43435	0.99999
1662.50569	0.99996
1660.57703	0.99989
1658.64836	0.99986
1656.71970	0.99990
1654.79104	1.00004
1652.86238	1.00016
1650.93372	1.00010
1649.00506	1.00010
1647.07640	1.00016
1645.14774	1.00010
1643.21908	1.00002
1641.29042	1.00001
1639.36176	1.00004
1637.43309	1.00009
1635.50443	1.00010
1633.57577	1.00003
1631.64711	1.00001
1629.71845	1.00003
1627.78979	1.00005
1625.86113	1.00005
1623.93247	1.00007
1622.00381	1.00003
1620.07515	1.00000
1618.14649	1.00004
1616.21782	1.00003
1614.28916	0.99990
1612.36050	0.99982
1610.43184	0.99984
1608.50318	0.99989
1606.57452	0.99989
1604.64586	0.99985
1602.71720	0.99983
1600.78854	0.99982
1598.85988	0.99982
1596.93122	0.99984
1595.00255	0.99988
1593.07389	0.99990
1591.14523	0.99990
1589.21657	0.99989
1587.28791	0.99990
1585.35925	0.99994
1583.43059	0.99997
1581.50193	0.99999
1579.57327	1.00004
1577.64461	1.00009
1575.71595	1.00007
1573.78729	1.00004
1571.85862	1.00010
1569.92996	1.00018
1568.00130	1.00014
1566.07264	1.00006
1564.14398	1.00005
1562.21532	1.00013
1560.28666	1.00035
1558.35800	1.00051
1556.42934	1.00034
1554.50068	1.00016
1552.57202	1.00008
1550.64335	1.00006
1548.71469	1.00005
1546.78603	1.00007
1544.85737	1.00019
1542.92871	1.00037
1541.00005	1.00038
1539.07139	1.00018
1537.14273	1.00002
1535.21407	1.00000
1533.28541	1.00000
1531.35675	0.99994
1529.42808	0.99993
1527.49942	1.00001
1525.57076	1.00006
1523.64210	1.00009
1521.71344	1.00018
1519.78478	1.00027
1517.85612	1.00025
1515.92746	1.00017
1513.99880	1.00008
1512.07014	1.00004
1510.14148	1.00007
1508.21281	1.00016
1506.28415	1.00018
1504.35549	1.00009
1502.42683	1.00003
1500.49817	1.00006
1498.56951	1.00016
1496.64085	1.00023
1494.71219	1.00021
1492.78353	1.00016
1490.85487	1.00015
1488.92621	1.00013
1486.99755	1.00007
1485.06888	0.99999
1483.14022	0.99996
1481.21156	0.99994
1479.28290	0.99995
1477.35424	1.00004
1475.42558	1.00016
1473.49692	1.00022
1471.56826	1.00014
1469.63960	1.00004
1467.71094	1.00003
1465.78228	1.00006
1463.85361	1.00003
1461.92495	1.00000
1459.99629	1.00005
1458.06763	1.00011
1456.13897	1.00006
1454.21031	1.00001
1452.28165	1.00000
1450.35299	1.00001
1448.42433	1.00003
1446.49567	1.00001
1444.56701	0.99995
1442.63834	0.99987
1440.70968	0.99986
1438.78102	0.99996
1436.85236	1.00009
1434.92370	1.00009
1432.99504	1.00005
1431.06638	1.00004
1429.13772	0.99999
1427.20906	0.99995
1425.28040	0.99992
1423.35174	0.99989
1421.42307	0.99993
1419.49441	1.00002
1417.56575	1.00001
1415.63709	0.99995
1413.70843	0.99995
1411.77977	0.99995
1409.85111	0.99994
1407.92245	0.99996
1405.99379	0.99999
1404.06513	0.99997
1402.13647	0.99997
1400.20781	0.99999
1398.27914	1.00001
1396.35048	1.00004
1394.42182	1.00002
1392.49316	0.99997
1390.56450	0.99994
1388.63584	0.99993
1386.70718	0.99992
1384.77852	0.99987
1382.84986	0.99978
1380.92120	0.99973
1378.99254	0.99978
1377.06387	0.99987
1375.13521	0.99995
1373.20655	0.99994
1371.27789	0.99989
1369.34923	0.99986
1367.42057	0.99991
1365.49191	0.99999
1363.56325	1.00004
1361.63459	1.00005
1359.70593	1.00000
1357.77727	0.99997
1355.84860	0.99998
1353.91994	0.99997
1351.99128	0.99992
1350.06262	0.99985
1348.13396	0.99984
1346.20530	0.99989
1344.27664	0.99992
1342.34798	0.99989
1340.41932	0.99987
1338.49066	0.99988
1336.56200	0.99988
1334.63333	0.99986
1332.70467	0.99985
1330.77601	0.99987
1328.84735	0.99988
1326.91869	0.99991
1324.99003	0.99998
1323.06137	1.00003
1321.13271	0.99998
1319.20405	0.99991
1317.27539	0.99987
1315.34673	0.99985
1313.41807	0.99982
1311.48940	0.99981
1309.56074	0.99985
1307.63208	0.99989
1305.70342	0.99990
1303.77476	0.99988
1301.84610	0.99989
1299.91744	0.99990
1297.98878	0.99989
1296.06012	0.99990
1294.13146	0.99993
1292.20280	0.99994
1290.27413	0.99994
1288.34547	0.99995
1286.41681	0.99996
1284.48815	0.99998
1282.55949	0.99996
1280.63083	0.99991
1278.70217	0.99989
1276.77351	0.99991
1274.84485	0.99995
1272.91619	0.99999
1270.98753	1.00000
1269.05886	0.99997
1267.13020	0.99989
1265.20154	0.99982
1263.27288	0.99984
1261.34422	0.99988
1259.41556	0.99992
1257.48690	0.99999
1255.55824	1.00004
1253.62958	1.00003
1251.70092	0.99998
1249.77226	0.99995
1247.84359	0.99992
1245.91493	0.99987
1243.98627	0.99986
1242.05761	0.99993
1240.12895	1.00000
1238.20029	0.99997
1236.27163	0.99991
1234.34297	0.99990
1232.41431	0.99993
1230.48565	0.99989
1228.55699	0.99984
1226.62833	0.99986
1224.69966	0.99991
1222.77100	0.99992
1220.84234	0.99989
1218.91368	0.99985
1216.98502	0.99985
1215.05636	0.99987
1213.12770	0.99992
1211.19904	0.99997
1209.27038	0.99997
1207.34172	0.99992
1205.41306	0.99991
1203.48439	0.99992
1201.55573	0.99991
1199.62707	0.99994
1197.69841	0.99997
1195.76975	0.99995
1193.84109	0.99993
1191.91243	0.99995
1189.98377	0.99992
1188.05511	0.99979
1186.12645	0.99968
1184.19779	0.99974
1182.26912	0.99987
1180.34046	0.99991
1178.41180	0.99992
1176.48314	0.99996
1174.55448	1.00002
1172.62582	0.99999
1170.69716	0.99990
1168.76850	0.99984
1166.83984	0.99985
1164.91118	0.99984
1162.98252	0.99985
1161.05385	0.99988
1159.12519	0.99989
1157.19653	0.99989
1155.26787	0.99995
1153.33921	0.99998
1151.41055	0.99996
1149.48189	0.99997
1147.55323	0.99998
1145.62457	0.99993
1143.69591	0.99985
1141.76725	0.99984
1139.83859	0.99989
1137.90992	0.99989
1135.98126	0.99983
1134.05260	0.99980
1132.12394	0.99980
1130.19528	0.99980
1128.26662	0.99980
1126.33796	0.99978
1124.40930	0.99977
1122.48064	0.99981
1120.55198	0.99989
1118.62332	0.99994
1116.69465	0.99995
1114.76599	0.99992
1112.83733	0.99985
1110.90867	0.99978
1108.98001	0.99972
1107.05135	0.99971
1105.12269	0.99975
1103.19403	0.99980
1101.26537	0.99983
1099.33671	0.99986
1097.40805	0.99993
1095.47938	0.99993
1093.55072	0.99981
1091.62206	0.99978
1089.69340	0.99986
1087.76474	0.99996
1085.83608	1.00006
1083.90742	1.00007
1081.97876	0.99999
1080.05010	0.99996
1078.12144	1.00003
1076.19278	1.00009
1074.26411	1.00009
1072.33545	1.00008
1070.40679	1.00005
1068.47813	0.99994
1066.54947	0.99981
1064.62081	0.99977
1062.69215	0.99983
1060.76349	0.99990
1058.83483	0.99995
1056.90617	0.99997
1054.97751	0.99995
1053.04885	0.99994
1051.12018	0.99996
1049.19152	0.99994
1047.26286	0.99985
1045.33420	0.99976
1043.40554	0.99973
1041.47688	0.99978
1039.54822	0.99985
1037.61956	0.99985
1035.69090	0.99981
1033.76224	0.99983
1031.83358	0.99990
1029.90491	0.99998
1027.97625	1.00006
1026.04759	1.00005
1024.11893	0.99999
1022.19027	0.99992
1020.26161	0.99988
1018.33295	0.99985
1016.40429	0.99983
1014.47563	0.99985
1012.54697	0.99994
1010.61831	1.00001
1008.68964	0.99997
1006.76098	0.99989
1004.83232	0.99988
1002.90366	0.99995
1000.97500	0.99998
999.04634	0.99994
997.11768	0.99991
995.18902	0.99994
993.26036	0.99997
991.33170	0.99997
989.40304	0.99994
987.47438	0.99994
985.54571	0.99994
983.61705	0.99989
981.68839	0.99982
979.75973	0.99982
977.83107	0.99988
975.90241	0.99991
973.97375	0.99990
972.04509	0.99986
970.11643	0.99979
968.18777	0.99975
966.25911	0.99982
964.33044	0.99990
962.40178	0.99995
960.47312	0.99998
958.54446	1.00001
956.61580	0.99997
954.68714	0.99989
952.75848	0.99989
950.82982	0.99992
948.90116	0.99988
946.97250	0.99986
945.04384	0.99992
943.11517	0.99994
941.18651	0.99986
939.25785	0.99976
937.32919	0.99972
935.40053	0.99973
933.47187	0.99975
931.54321	0.99972
929.61455	0.99968
927.68589	0.99972
925.75723	0.99981
923.82857	0.99991
921.89990	1.00002
919.97124	1.00011
918.04258	1.00013
916.11392	1.00007
914.18526	0.99995
912.25660	0.99989
910.32794	0.99993
908.39928	0.99992
906.47062	0.99979
904.54196	0.99969
902.61330	0.99973
900.68464	0.99982
898.75597	0.99987
896.82731	0.99983
894.89865	0.99973
892.96999	0.99967
891.04133	0.99967
889.11267	0.99971
887.18401	0.99976
885.25535	0.99982
883.32669	0.99986
881.39803	0.99989
879.46937	0.99995
877.54070	1.00002
875.61204	0.99997
873.68338	0.99982
871.75472	0.99970
869.82606	0.99970
867.89740	0.99982
865.96874	0.99994
864.04008	0.99995
862.11142	0.99989
860.18276	0.99984
858.25410	0.99981
856.32543	0.99977
854.39677	0.99971
852.46811	0.99967
850.53945	0.99968
848.61079	0.99972
846.68213	0.99973
844.75347	0.99974
842.82481	0.99981
840.89615	0.99986
838.96749	0.99983
837.03883	0.99976
835.11016	0.99971
833.18150	0.99969
831.25284	0.99977
829.32418	0.99995
827.39552	1.00007
825.46686	1.00006
823.53820	0.99991
821.60954	0.99980
819.68088	0.99984
817.75222	0.99998
815.82356	1.00000
813.89490	0.99983
811.96623	0.99966
810.03757	0.99966
808.10891	0.99973
806.18025	0.99974
804.25159	0.99969
802.32293	0.99969
800.39427	0.99976
798.46561	0.99983
796.53695	0.99989
794.60829	0.99992
792.67963	0.99994
790.75096	0.99989
788.82230	0.99985
786.89364	0.99991
784.96498	0.99998
783.03632	0.99996
781.10766	0.99996
779.17900	1.00000
777.25034	0.99993
775.32168	0.99976
773.39302	0.99965
771.46436	0.99966
769.53569	0.99978
767.60703	0.99996
765.67837	1.00010
763.74971	1.00013
761.82105	1.00003
759.89239	0.99985
757.96373	0.99971
756.03507	0.99971
754.10641	0.99984
752.17775	0.99995
750.24909	0.99995
748.32042	0.99984
746.39176	0.99973
744.46310	0.99973
742.53444	0.99982
740.60578	0.99997
738.67712	1.00012
736.74846	1.00016
734.81980	1.00009
732.89114	1.00002
730.96248	0.99996
729.03382	0.99982
727.10516	0.99962
725.17649	0.99954
723.24783	0.99963
721.31917	0.99981
719.39051	0.99995
717.46185	0.99985
715.53319	0.99956
713.60453	0.99942
711.67587	0.99960
709.74721	0.99988
707.81855	1.00002
705.88989	1.00005
703.96122	1.00015
702.03256	1.00026
700.10390	1.00031
698.17524	1.00020
696.24658	0.99997
694.31792	0.99998
692.38926	1.00031
690.46060	1.00052
688.53194	1.00034
686.60328	1.00002
684.67462	0.99979
682.74595	0.99963
680.81729	0.99956
678.88863	0.99965
676.95997	0.99984
675.03131	0.99996
673.10265	0.99997
671.17399	1.00000
669.24533	1.00011
667.31667	1.00025
665.38801	1.00005
663.45935	0.99962
661.53068	0.99941
659.60202	0.99949
657.67336	0.99929
655.74470	0.99893
653.81604	0.99894
651.88738	0.99923
649.95872	0.99945
648.03006	0.99959
646.10140	0.99979
644.17274	0.99987
642.24408	0.99961
640.31542	0.99942
638.38675	0.99970
636.45809	0.99998
634.52943	0.99996
632.60077	0.99997
630.67211	1.00000
628.74345	0.99983
626.81479	0.99961
624.88613	0.99959
622.95747	0.99997
621.02881	1.00024
619.10015	0.99997
617.17148	0.99968
615.24282	0.99965
613.31416	0.99966
611.38550	0.99991
609.45684	1.00031
607.52818	1.00024
605.59952	0.99978
603.67086	0.99962
601.74220	0.99972
599.81354	0.99972
597.88488	0.99986
595.95621	0.99995
594.02755	0.99961
592.09889	0.99930
590.17023	0.99954
588.24157	0.99985
586.31291	0.99992
584.38425	1.00003
582.45559	1.00015
580.52693	1.00000
578.59827	0.99971
576.66961	0.99957
574.74094	0.99952
572.81228	0.99922
570.88362	0.99884
568.95496	0.99876
567.02630	0.99905
565.09764	0.99953
563.16898	0.99991
561.24032	1.00023
559.31166	1.00037
557.38300	1.00013
555.45434	0.99983
553.52568	0.99976
551.59701	0.99986
549.66835	0.99992
547.73969	0.99983
545.81103	0.99972
543.88237	0.99974
541.95371	1.00000
540.02505	1.00048
538.09639	1.00067
536.16773	1.00019
534.23907	0.99940
532.31041	0.99895
530.38174	0.99896
528.45308	0.99934
526.52442	0.99996
524.59576	1.00039
522.66710	1.00045
520.73844	1.00032
518.80978	0.99996
516.88112	0.99950
514.95246	0.99939
513.02380	0.99995
511.09514	1.00070
509.16647	1.00047
507.23781	0.99966
505.30915	0.99958
503.38049	1.00012
501.45183	1.00075
499.52317	1.00107
497.59451	1.00064
495.66585	0.99988
493.73719	0.99934
491.80853	0.99912
489.87987	0.99929
487.95120	0.99965
486.02254	0.99983
484.09388	0.99974
482.16522	0.99947
480.23656	0.99918
478.30790	0.99911
476.37924	0.99913
474.45058	0.99891
472.52192	0.99865
470.59326	0.99882
468.66460	0.99934
466.73594	0.99976
464.80727	0.99981
462.87861	0.99955
460.94995	0.99938
459.02129	0.99972
457.09263	1.00017
455.16397	1.00010
453.23531	0.99971
451.30665	0.99950
449.37799	0.99961
447.44933	0.99971
445.52067	0.99951
443.59200	0.99949
441.66334	1.00004
439.73468	1.00060
437.80602	1.00040
435.87736	0.99968
433.94870	0.99924
432.02004	0.99948
430.09138	0.99985
428.16272	0.99976
426.23406	0.99962
424.30540	0.99994
422.37673	1.00023
420.44807	0.99991
418.51941	0.99964
416.59075	0.99986
414.66209	0.99998
412.73343	1.00012
410.80477	1.00031
408.87611	1.00017
406.94745	0.99996
405.01879	0.99990
403.09013	0.99952
401.16146	0.99884
399.23280	0.99873
