3996.23848	0.55067
3994.30979	0.55142
3992.38110	0.55026
3990.45242	0.54983
3988.52373	0.54852
3986.59504	0.54507
3984.66636	0.54401
3982.73767	0.54561
3980.80898	0.54773
3978.88030	0.54918
3976.95161	0.54864
3975.02292	0.54827
3973.09424	0.55043
3971.16555	0.55315
3969.23687	0.55418
3967.30818	0.55435
3965.37949	0.55288
3963.45081	0.54797
3961.52212	0.54380
3959.59343	0.54547
3957.66475	0.55007
3955.73606	0.55191
3953.80737	0.55066
3951.87869	0.54861
3949.95000	0.54715
3948.02131	0.54744
3946.09263	0.54797
3944.16394	0.54830
3942.23525	0.54956
3940.30657	0.54727
3938.37788	0.54204
3936.44919	0.54163
3934.52051	0.54487
3932.59182	0.54747
3930.66313	0.54996
3928.73445	0.55177
3926.80576	0.55168
3924.87708	0.55126
3922.94839	0.55255
3921.01970	0.55394
3919.09102	0.55421
3917.16233	0.55686
3915.23364	0.56044
3913.30496	0.55791
3911.37627	0.55288
3909.44758	0.55270
3907.51890	0.55248
3905.59021	0.54742
3903.66152	0.54269
3901.73284	0.54339
3899.80415	0.54738
3897.87546	0.55071
3895.94678	0.55447
3894.01809	0.55860
3892.08940	0.55757
3890.16072	0.55124
3888.23203	0.54755
3886.30334	0.54987
3884.37466	0.55412
3882.44597	0.55528
3880.51729	0.55031
3878.58860	0.54480
3876.65991	0.54666
3874.73123	0.55155
3872.80254	0.55436
3870.87385	0.55617
3868.94517	0.55596
3867.01648	0.55483
3865.08779	0.55486
3863.15911	0.55465
3861.23042	0.55354
3859.30173	0.55154
3857.37305	0.54893
3855.44436	0.54701
3853.51567	0.54630
3851.58699	0.54739
3849.65830	0.55094
3847.72961	0.55344
3845.80093	0.55245
3843.87224	0.55249
3841.94355	0.55609
3840.01487	0.55886
3838.08618	0.55838
3836.15750	0.55930
3834.22881	0.56091
3832.30012	0.55837
3830.37144	0.55777
3828.44275	0.56086
3826.51406	0.55998
3824.58538	0.55740
3822.65669	0.55788
3820.72800	0.55822
3818.79932	0.55748
3816.87063	0.55902
3814.94194	0.56158
3813.01326	0.56048
3811.08457	0.55704
3809.15588	0.55778
3807.22720	0.56240
3805.29851	0.56349
3803.36982	0.55992
3801.44114	0.55594
3799.51245	0.55382
3797.58376	0.55457
3795.65508	0.55641
3793.72639	0.55716
3791.79771	0.55697
3789.86902	0.55555
3787.94033	0.55536
3786.01165	0.55856
3784.08296	0.56149
3782.15427	0.56129
3780.22559	0.55732
3778.29690	0.55128
3776.36821	0.55029
3774.43953	0.55731
3772.51084	0.56228
3770.58215	0.55927
3768.65347	0.55811
3766.72478	0.56127
3764.79609	0.56089
3762.86741	0.55929
3760.93872	0.56049
3759.01003	0.56120
3757.08135	0.56169
3755.15266	0.56294
3753.22397	0.56182
3751.29529	0.56114
3749.36660	0.56329
3747.43792	0.56215
3745.50923	0.55729
3743.58054	0.55443
3741.65186	0.55400
3739.72317	0.55308
3737.79448	0.55047
3735.86580	0.54746
3733.93711	0.54605
3732.00842	0.54656
3730.07974	0.55084
3728.15105	0.55810
3726.22236	0.56061
3724.29368	0.55861
3722.36499	0.56016
3720.43630	0.56429
3718.50762	0.56454
3716.57893	0.55910
3714.65024	0.55417
3712.72156	0.55475
3710.79287	0.55495
3708.86418	0.55066
3706.93550	0.54680
3705.00681	0.54558
3703.07812	0.54569
3701.14944	0.54879
3699.22075	0.55352
3697.29207	0.55400
3695.36338	0.55040
3693.43469	0.54847
3691.50601	0.55071
3689.57732	0.55430
3687.64863	0.55664
3685.71995	0.55618
3683.79126	0.55105
3681.86257	0.54492
3679.93389	0.54134
3678.00520	0.53706
3676.07651	0.53303
3674.14783	0.53423
3672.21914	0.53629
3670.29045	0.53251
3668.36177	0.52778
3666.43308	0.52747
3664.50439	0.52696
3662.57571	0.52265
3660.64702	0.52028
3658.71833	0.52513
3656.78965	0.53008
3654.86096	0.52661
3652.93228	0.52054
3651.00359	0.51908
3649.07490	0.51876
3647.14622	0.51678
3645.21753	0.51728
3643.28884	0.52235
3641.36016	0.52790
3639.43147	0.52730
3637.50278	0.51823
3635.57410	0.50902
3633.64541	0.50860
3631.71672	0.51175
3629.78804	0.51032
3627.85935	0.50661
3625.93066	0.50333
3624.00198	0.50035
3622.07329	0.49987
3620.14460	0.50128
3618.21592	0.49900
3616.28723	0.49097
3614.35854	0.48362
3612.42986	0.48409
3610.50117	0.48890
3608.57249	0.49039
3606.64380	0.48961
3604.71511	0.48946
3602.78643	0.48972
3600.85774	0.48985
3598.92905	0.48789
3597.00037	0.48609
3595.07168	0.48767
3593.14299	0.48987
3591.21431	0.49065
3589.28562	0.49018
3587.35693	0.48619
3585.42825	0.47882
3583.49956	0.47481
3581.57087	0.47805
3579.64219	0.48413
3577.71350	0.48709
3575.78481	0.48571
3573.85613	0.48429
3571.92744	0.48427
3569.99875	0.48253
3568.07007	0.48126
3566.14138	0.48388
3564.21270	0.48692
3562.28401	0.48712
3560.35532	0.48579
3558.42664	0.48357
3556.49795	0.48041
3554.56926	0.47857
3552.64058	0.47846
3550.71189	0.47728
3548.78320	0.47463
3546.85452	0.47308
3544.92583	0.47301
3542.99714	0.47238
3541.06846	0.47038
3539.13977	0.46694
3537.21108	0.46518
3535.28240	0.46928
3533.35371	0.47391
3531.42502	0.47358
3529.49634	0.47059
3527.56765	0.46670
3525.63896	0.46458
3523.71028	0.46480
3521.78159	0.46447
3519.85291	0.46530
3517.92422	0.46773
3515.99553	0.46751
3514.06685	0.46663
3512.13816	0.46839
3510.20947	0.46753
3508.28079	0.46414
3506.35210	0.46457
3504.42341	0.46533
3502.49473	0.46256
3500.56604	0.46133
3498.63735	0.46296
3496.70867	0.46318
3494.77998	0.46321
3492.85129	0.46584
3490.92261	0.46789
3488.99392	0.46569
3487.06523	0.46150
3485.13655	0.46092
3483.20786	0.46297
3481.27917	0.46079
3479.35049	0.45597
3477.42180	0.45597
3475.49312	0.45935
3473.56443	0.46236
3471.63574	0.46695
3469.70706	0.46938
3467.77837	0.46536
3465.84968	0.46141
3463.92100	0.46029
3461.99231	0.45898
3460.06362	0.46121
3458.13494	0.46620
3456.20625	0.46631
3454.27756	0.46186
3452.34888	0.45676
3450.42019	0.45450
3448.49150	0.45803
3446.56282	0.46436
3444.63413	0.46848
3442.70544	0.46894
3440.77676	0.46676
3438.84807	0.46392
3436.91938	0.46137
3434.99070	0.45913
3433.06201	0.46171
3431.13333	0.47031
3429.20464	0.47577
3427.27595	0.47265
3425.34727	0.46536
3423.41858	0.45969
3421.48989	0.45628
3419.56121	0.45413
3417.63252	0.45461
3415.70383	0.45859
3413.77515	0.46384
3411.84646	0.46589
3409.91777	0.46445
3407.98909	0.46306
3406.06040	0.46256
3404.13171	0.46221
3402.20303	0.46277
3400.27434	0.46327
3398.34565	0.46308
3396.41697	0.46575
3394.48828	0.46980
3392.55959	0.47097
3390.63091	0.47011
3388.70222	0.46776
3386.77354	0.46423
3384.84485	0.46081
3382.91616	0.45918
3380.98748	0.46087
3379.05879	0.46429
3377.13010	0.46751
3375.20142	0.46876
3373.27273	0.46587
3371.34404	0.46220
3369.41536	0.46307
3367.48667	0.46600
3365.55798	0.46722
3363.62930	0.46687
3361.70061	0.46540
3359.77192	0.46402
3357.84324	0.46228
3355.91455	0.46105
3353.98586	0.46383
3352.05718	0.46906
3350.12849	0.47273
3348.19980	0.47214
3346.27112	0.46566
3344.34243	0.45716
3342.41375	0.45329
3340.48506	0.45579
3338.55637	0.46138
3336.62769	0.46528
3334.69900	0.46617
3332.77031	0.46658
3330.84163	0.46600
3328.91294	0.46381
3326.98425	0.46462
3325.05557	0.47035
3323.12688	0.47518
3321.19819	0.47398
3319.26951	0.46970
3317.34082	0.46623
3315.41213	0.46168
3313.48345	0.45869
3311.55476	0.46148
3309.62607	0.46343
3307.69739	0.46161
3305.76870	0.46274
3303.84001	0.46630
3301.91133	0.46712
3299.98264	0.46650
3298.05396	0.46717
3296.12527	0.46661
3294.19658	0.46334
3292.26790	0.46192
3290.33921	0.46432
3288.41052	0.46724
3286.48184	0.46910
3284.55315	0.47097
3282.62446	0.47270
3280.69578	0.47284
3278.76709	0.47220
3276.83840	0.47233
3274.90972	0.47285
3272.98103	0.47316
3271.05234	0.47371
3269.12366	0.47489
3267.19497	0.47500
3265.26628	0.47286
3263.33760	0.47001
3261.40891	0.46751
3259.48022	0.46572
3257.55154	0.46500
3255.62285	0.46646
3253.69417	0.47031
3251.76548	0.47209
3249.83679	0.46910
3247.90811	0.46505
3245.97942	0.46377
3244.05073	0.46610
3242.12205	0.47136
3240.19336	0.47689
3238.26467	0.47763
3236.33599	0.47336
3234.40730	0.47007
3232.47861	0.46885
3230.54993	0.46838
3228.62124	0.47080
3226.69255	0.47481
3224.76387	0.47667
3222.83518	0.47677
3220.90649	0.47642
3218.97781	0.47531
3217.04912	0.47400
3215.12043	0.47311
3213.19175	0.47356
3211.26306	0.47572
3209.33437	0.47709
3207.40569	0.47668
3205.47700	0.47693
3203.54832	0.47676
3201.61963	0.47356
3199.69094	0.47127
3197.76226	0.47223
3195.83357	0.47302
3193.90488	0.47413
3191.97620	0.47592
3190.04751	0.47541
3188.11882	0.47324
3186.19014	0.47230
3184.26145	0.47332
3182.33276	0.47531
3180.40408	0.47750
3178.47539	0.47855
3176.54670	0.47756
3174.61802	0.47706
3172.68933	0.47844
3170.76064	0.47987
3168.83196	0.48144
3166.90327	0.48260
3164.97458	0.48156
3163.04590	0.48165
3161.11721	0.48417
3159.18853	0.48288
3157.25984	0.47669
3155.33115	0.47327
3153.40247	0.47632
3151.47378	0.48186
3149.54509	0.48441
3147.61641	0.48207
3145.68772	0.47914
3143.75903	0.47941
3141.83035	0.48162
3139.90166	0.48348
3137.97297	0.48386
3136.04429	0.48386
3134.11560	0.48369
3132.18691	0.48223
3130.25823	0.48041
3128.32954	0.47936
3126.40085	0.47888
3124.47217	0.47910
3122.54348	0.48109
3120.61479	0.48359
3118.68611	0.48466
3116.75742	0.48378
3114.82874	0.48091
3112.90005	0.47898
3110.97136	0.48041
3109.04268	0.48374
3107.11399	0.48621
3105.18530	0.48700
3103.25662	0.48703
3101.32793	0.48570
3099.39924	0.48216
3097.47056	0.47847
3095.54187	0.47948
3093.61318	0.48512
3091.68450	0.48728
3089.75581	0.48358
3087.82712	0.48068
3085.89844	0.48184
3083.96975	0.48521
3082.04106	0.48726
3080.11238	0.48640
3078.18369	0.48584
3076.25500	0.48732
3074.32632	0.48928
3072.39763	0.48983
3070.46895	0.48756
3068.54026	0.48461
3066.61157	0.48331
3064.68289	0.48235
3062.75420	0.48204
3060.82551	0.48410
3058.89683	0.48761
3056.96814	0.49123
3055.03945	0.49296
3053.11077	0.49101
3051.18208	0.48768
3049.25339	0.48684
3047.32471	0.49006
3045.39602	0.49301
3043.46733	0.49179
3041.53865	0.48987
3039.60996	0.48933
3037.68127	0.48887
3035.75259	0.48948
3033.82390	0.49205
3031.89521	0.49434
3029.96653	0.49560
3028.03784	0.49702
3026.10916	0.49639
3024.18047	0.49339
3022.25178	0.49084
3020.32310	0.48859
3018.39441	0.48516
3016.46572	0.48187
3014.53704	0.48187
3012.60835	0.48348
3010.67966	0.48229
3008.75098	0.48080
3006.82229	0.48254
3004.89360	0.48475
3002.96492	0.48549
3001.03623	0.48548
2999.10754	0.48441
2997.17886	0.48138
2995.25017	0.47709
2993.32148	0.47556
2991.39280	0.47775
2989.46411	0.47910
2987.53542	0.47876
2985.60674	0.47961
2983.67805	0.48012
2981.74937	0.47831
2979.82068	0.47661
2977.89199	0.47532
2975.96331	0.47298
2974.03462	0.47028
2972.10593	0.46725
2970.17725	0.46455
2968.24856	0.46419
2966.31987	0.46444
2964.39119	0.46209
2962.46250	0.45802
2960.53381	0.45467
2958.60513	0.45401
2956.67644	0.45590
2954.74775	0.45859
2952.81907	0.46092
2950.89038	0.46020
2948.96169	0.45625
2947.03301	0.45388
2945.10432	0.45554
2943.17563	0.45747
2941.24695	0.45616
2939.31826	0.45479
2937.38958	0.45575
2935.46089	0.45499
2933.53220	0.45047
2931.60352	0.44743
2929.67483	0.44911
2927.74614	0.45117
2925.81746	0.45129
2923.88877	0.45192
2921.96008	0.45238
2920.03140	0.45134
2918.10271	0.45182
2916.17402	0.45430
2914.24534	0.45588
2912.31665	0.45832
2910.38796	0.46362
2908.45928	0.46724
2906.53059	0.46696
2904.60190	0.46869
2902.67322	0.47365
2900.74453	0.47584
2898.81584	0.47328
2896.88716	0.46866
2894.95847	0.46670
2893.02979	0.47112
2891.10110	0.47855
2889.17241	0.48196
2887.24373	0.47982
2885.31504	0.47555
2883.38635	0.47277
2881.45767	0.47360
2879.52898	0.47658
2877.60029	0.47820
2875.67161	0.47705
2873.74292	0.47428
2871.81423	0.47205
2869.88555	0.47134
2867.95686	0.47112
2866.02817	0.47146
2864.09949	0.47397
2862.17080	0.47638
2860.24211	0.47532
2858.31343	0.47352
2856.38474	0.47447
2854.45605	0.47758
2852.52737	0.48089
2850.59868	0.48353
2848.67000	0.48480
2846.74131	0.48486
2844.81262	0.48639
2842.88394	0.48967
2840.95525	0.49311
2839.02656	0.49707
2837.09788	0.50075
2835.16919	0.50299
2833.24050	0.50389
2831.31182	0.50337
2829.38313	0.50250
2827.45444	0.50366
2825.52576	0.50610
2823.59707	0.50776
2821.66838	0.51007
2819.73970	0.51344
2817.81101	0.51593
2815.88232	0.51666
2813.95364	0.51529
2812.02495	0.51317
2810.09626	0.51275
2808.16758	0.51480
2806.23889	0.51792
2804.31021	0.52006
2802.38152	0.52034
2800.45283	0.51897
2798.52415	0.51707
2796.59546	0.51706
2794.66677	0.51985
2792.73809	0.52283
2790.80940	0.52337
2788.88071	0.52162
2786.95203	0.51960
2785.02334	0.51903
2783.09465	0.51942
2781.16597	0.52024
2779.23728	0.52259
2777.30859	0.52539
2775.37991	0.52679
2773.45122	0.52742
2771.52253	0.52645
2769.59385	0.52336
2767.66516	0.52122
2765.73647	0.52026
2763.80779	0.51819
2761.87910	0.51728
2759.95042	0.51984
2758.02173	0.52301
2756.09304	0.52478
2754.16436	0.52570
2752.23567	0.52536
2750.30698	0.52317
2748.37830	0.52044
2746.44961	0.52150
2744.52092	0.52625
2742.59224	0.52826
2740.66355	0.52708
2738.73486	0.52771
2736.80618	0.52913
2734.87749	0.52842
2732.94880	0.52917
2731.02012	0.53253
2729.09143	0.53319
2727.16274	0.53006
2725.23406	0.52707
2723.30537	0.52649
2721.37668	0.52757
2719.44800	0.52859
2717.51931	0.53013
2715.59062	0.53221
2713.66194	0.53154
2711.73325	0.52879
2709.80457	0.52846
2707.87588	0.53022
2705.94719	0.53200
2704.01851	0.53389
2702.08982	0.53446
2700.16113	0.53276
2698.23245	0.53163
2696.30376	0.53248
2694.37507	0.53268
2692.44639	0.53050
2690.51770	0.52791
2688.58901	0.52786
2686.66033	0.53102
2684.73164	0.53438
2682.80295	0.53501
2680.87427	0.53517
2678.94558	0.53590
2677.01689	0.53438
2675.08821	0.53223
2673.15952	0.53206
2671.23083	0.53200
2669.30215	0.53061
2667.37346	0.52942
2665.44478	0.52867
2663.51609	0.52840
2661.58740	0.53123
2659.65872	0.53597
2657.73003	0.53885
2655.80134	0.53915
2653.87266	0.53693
2651.94397	0.53362
2650.01528	0.53196
2648.08660	0.53236
2646.15791	0.53376
2644.22922	0.53443
2642.30054	0.53330
2640.37185	0.53226
2638.44316	0.53257
2636.51448	0.53414
2634.58579	0.53729
2632.65710	0.53963
2630.72842	0.53950
2628.79973	0.53881
2626.87104	0.53833
2624.94236	0.53754
2623.01367	0.53756
2621.08499	0.53916
2619.15630	0.54078
2617.22761	0.54122
2615.29893	0.53990
2613.37024	0.53716
2611.44155	0.53610
2609.51287	0.53832
2607.58418	0.54098
2605.65549	0.54102
2603.72681	0.53889
2601.79812	0.53750
2599.86943	0.53819
2597.94075	0.53883
2596.01206	0.53822
2594.08337	0.53797
2592.15469	0.53813
2590.22600	0.53855
2588.29731	0.54016
2586.36863	0.54101
2584.43994	0.53993
2582.51125	0.53942
2580.58257	0.54047
2578.65388	0.54114
2576.72520	0.54019
2574.79651	0.53959
2572.86782	0.54081
2570.93914	0.54193
2569.01045	0.54258
2567.08176	0.54410
2565.15308	0.54501
2563.22439	0.54424
2561.29570	0.54383
2559.36702	0.54506
2557.43833	0.54656
2555.50964	0.54615
2553.58096	0.54453
2551.65227	0.54394
2549.72358	0.54471
2547.79490	0.54590
2545.86621	0.54639
2543.93752	0.54584
2542.00884	0.54431
2540.08015	0.54230
2538.15146	0.54107
2536.22278	0.54054
2534.29409	0.54043
2532.36541	0.54094
2530.43672	0.54157
2528.50803	0.54200
2526.57935	0.54228
2524.65066	0.54322
2522.72197	0.54485
2520.79329	0.54589
2518.86460	0.54557
2516.93591	0.54355
2515.00723	0.54152
2513.07854	0.54180
2511.14985	0.54359
2509.22117	0.54504
2507.29248	0.54584
2505.36379	0.54729
2503.43511	0.54915
2501.50642	0.54857
2499.57773	0.54524
2497.64905	0.54275
2495.72036	0.54435
2493.79167	0.54872
2491.86299	0.55114
2489.93430	0.54923
2488.00562	0.54588
2486.07693	0.54564
2484.14824	0.54729
2482.21956	0.54750
2480.29087	0.54827
2478.36218	0.55072
2476.43350	0.55294
2474.50481	0.55476
2472.57612	0.55607
2470.64744	0.55611
2468.71875	0.55526
2466.79006	0.55403
2464.86138	0.55222
2462.93269	0.54993
2461.00400	0.54891
2459.07532	0.55063
2457.14663	0.55413
2455.21794	0.55648
2453.28926	0.55593
2451.36057	0.55521
2449.43188	0.55699
2447.50320	0.55899
2445.57451	0.55915
2443.64583	0.55913
2441.71714	0.55976
2439.78845	0.55933
2437.85977	0.55826
2435.93108	0.55778
2434.00239	0.55659
2432.07371	0.55547
2430.14502	0.55588
2428.21633	0.55670
2426.28765	0.55748
2424.35896	0.55881
2422.43027	0.56055
2420.50159	0.56090
2418.57290	0.55953
2416.64421	0.55911
2414.71553	0.56009
2412.78684	0.56059
2410.85815	0.55990
2408.92947	0.55833
2407.00078	0.55689
2405.07209	0.55716
2403.14341	0.55925
2401.21472	0.56071
2399.28604	0.56063
2397.35735	0.55997
2395.42866	0.55888
2393.49998	0.55852
2391.57129	0.55994
2389.64260	0.56098
2387.71392	0.56029
2385.78523	0.55923
2383.85654	0.55831
2381.92786	0.55746
2379.99917	0.55799
2378.07048	0.55994
2376.14180	0.55924
2374.21311	0.55449
2372.28442	0.55016
2370.35574	0.54793
2368.42705	0.54650
2366.49836	0.54514
2364.56968	0.54302
2362.64099	0.54101
2360.71230	0.54009
2358.78362	0.53969
2356.85493	0.53922
2354.92625	0.53832
2352.99756	0.53664
2351.06887	0.53459
2349.14019	0.53268
2347.21150	0.52879
2345.28281	0.52265
2343.35413	0.51856
2341.42544	0.51720
2339.49675	0.51617
2337.56807	0.51668
2335.63938	0.51942
2333.71069	0.52295
2331.78201	0.52670
2329.85332	0.53004
2327.92463	0.53265
2325.99595	0.53461
2324.06726	0.53730
2322.13857	0.54235
2320.20989	0.54749
2318.28120	0.55102
2316.35251	0.55447
2314.42383	0.55694
2312.49514	0.55691
2310.56646	0.55692
2308.63777	0.55901
2306.70908	0.56104
2304.78040	0.56171
2302.85171	0.56269
2300.92302	0.56493
2298.99434	0.56759
2297.06565	0.56908
2295.13696	0.56855
2293.20828	0.56619
2291.27959	0.56336
2289.35090	0.56291
2287.42222	0.56480
2285.49353	0.56587
2283.56484	0.56555
2281.63616	0.56517
2279.70747	0.56561
2277.77878	0.56735
2275.85010	0.56891
2273.92141	0.56822
2271.99272	0.56615
2270.06404	0.56533
2268.13535	0.56643
2266.20667	0.56800
2264.27798	0.56864
2262.34929	0.56855
2260.42061	0.56822
2258.49192	0.56793
2256.56323	0.56831
2254.63455	0.56900
2252.70586	0.56989
2250.77717	0.57071
2248.84849	0.57055
2246.91980	0.56991
2244.99111	0.57013
2243.06243	0.57241
2241.13374	0.57443
2239.20505	0.57336
2237.27637	0.57247
2235.34768	0.57361
2233.41899	0.57384
2231.49031	0.57265
2229.56162	0.57045
2227.63293	0.56737
2225.70425	0.56642
2223.77556	0.56844
2221.84687	0.57033
2219.91819	0.57033
2217.98950	0.56959
2216.06082	0.57010
2214.13213	0.57113
2212.20344	0.57117
2210.27476	0.57092
2208.34607	0.57045
2206.41738	0.57004
2204.48870	0.57056
2202.56001	0.56994
2200.63132	0.56734
2198.70264	0.56577
2196.77395	0.56494
2194.84526	0.56292
2192.91658	0.56188
2190.98789	0.56261
2189.05920	0.56294
2187.13052	0.56344
2185.20183	0.56589
2183.27314	0.56934
2181.34446	0.57080
2179.41577	0.56928
2177.48708	0.56821
2175.55840	0.56922
2173.62971	0.56931
2171.70103	0.56848
2169.77234	0.56833
2167.84365	0.56816
2165.91497	0.56890
2163.98628	0.57039
2162.05759	0.56980
2160.12891	0.56843
2158.20022	0.56983
2156.27153	0.57214
2154.34285	0.57202
2152.41416	0.57032
2150.48547	0.56877
2148.55679	0.56723
2146.62810	0.56635
2144.69941	0.56747
2142.77073	0.56864
2140.84204	0.56804
2138.91335	0.56705
2136.98467	0.56627
2135.05598	0.56678
2133.12729	0.57037
2131.19861	0.57474
2129.26992	0.57613
2127.34124	0.57398
2125.41255	0.57032
2123.48386	0.56859
2121.55518	0.56934
2119.62649	0.56921
2117.69780	0.56810
2115.76912	0.56894
2113.84043	0.57087
2111.91174	0.57088
2109.98306	0.57001
2108.05437	0.57099
2106.12568	0.57279
2104.19700	0.57288
2102.26831	0.57149
2100.33962	0.57163
2098.41094	0.57415
2096.48225	0.57560
2094.55356	0.57466
2092.62488	0.57412
2090.69619	0.57522
2088.76750	0.57640
2086.83882	0.57643
2084.91013	0.57512
2082.98145	0.57293
2081.05276	0.57143
2079.12407	0.57199
2077.19539	0.57407
2075.26670	0.57596
2073.33801	0.57658
2071.40933	0.57546
2069.48064	0.57225
2067.55195	0.56859
2065.62327	0.56719
2063.69458	0.56828
2061.76589	0.57020
2059.83721	0.57110
2057.90852	0.57126
2055.97983	0.57251
2054.05115	0.57331
2052.12246	0.57309
2050.19377	0.57451
2048.26509	0.57601
2046.33640	0.57508
2044.40771	0.57370
2042.47903	0.57332
2040.55034	0.57305
2038.62166	0.57252
2036.69297	0.57169
2034.76428	0.57061
2032.83560	0.56984
2030.90691	0.56937
2028.97822	0.56923
2027.04954	0.56974
2025.12085	0.56995
2023.19216	0.56934
2021.26348	0.56900
2019.33479	0.56847
2017.40610	0.56723
2015.47742	0.56774
2013.54873	0.56961
2011.62004	0.56934
2009.69136	0.56733
2007.76267	0.56603
2005.83398	0.56616
2003.90530	0.56732
2001.97661	0.56863
2000.04792	0.56977
1998.11924	0.57050
1996.19055	0.56945
1994.26187	0.56723
1992.33318	0.56655
1990.40449	0.56724
1988.47581	0.56773
1986.54712	0.56820
1984.61843	0.56868
1982.68975	0.56959
1980.76106	0.57029
1978.83237	0.56826
1976.90369	0.56406
1974.97500	0.56112
1973.04631	0.56124
1971.11763	0.56398
1969.18894	0.56773
1967.26025	0.57021
1965.33157	0.57070
1963.40288	0.56961
1961.47419	0.56721
1959.54551	0.56652
1957.61682	0.56877
1955.68813	0.56986
1953.75945	0.56876
1951.83076	0.56887
1949.90208	0.57053
1947.97339	0.57074
1946.04470	0.56914
1944.11602	0.56852
1942.18733	0.56923
1940.25864	0.56903
1938.32996	0.56814
1936.40127	0.56865
1934.47258	0.56965
1932.54390	0.56941
1930.61521	0.56811
1928.68652	0.56501
1926.75784	0.56105
1924.82915	0.56083
1922.90046	0.56371
1920.97178	0.56446
1919.04309	0.56411
1917.11440	0.56638
1915.18572	0.56980
1913.25703	0.57152
1911.32834	0.57170
1909.39966	0.57127
1907.47097	0.56985
1905.54229	0.56823
1903.61360	0.56882
1901.68491	0.57098
1899.75623	0.57124
1897.82754	0.57044
1895.89885	0.57166
1893.97017	0.57407
1892.04148	0.57621
1890.11279	0.57666
1888.18411	0.57381
1886.25542	0.57068
1884.32673	0.57049
1882.39805	0.57089
1880.46936	0.57005
1878.54067	0.56912
1876.61199	0.56733
1874.68330	0.56507
1872.75461	0.56557
1870.82593	0.56776
1868.89724	0.56749
1866.96855	0.56434
1865.03987	0.56154
1863.11118	0.56015
1861.18250	0.55876
1859.25381	0.55864
1857.32512	0.55964
1855.39644	0.55873
1853.46775	0.55756
1851.53906	0.55876
1849.61038	0.56034
1847.68169	0.55958
1845.75300	0.55644
1843.82432	0.55358
1841.89563	0.55293
1839.96694	0.55340
1838.03826	0.55299
1836.10957	0.55063
1834.18088	0.54799
1832.25220	0.54661
1830.32351	0.54500
1828.39482	0.54268
1826.46614	0.54006
1824.53745	0.53725
1822.60876	0.53548
1820.68008	0.53429
1818.75139	0.53165
1816.82271	0.52779
1814.89402	0.52470
1812.96533	0.52240
1811.03665	0.51955
1809.10796	0.51692
1807.17927	0.51507
1805.25059	0.51158
1803.32190	0.50559
1801.39321	0.49997
1799.46453	0.49571
1797.53584	0.49217
1795.60715	0.48973
1793.67847	0.48704
1791.74978	0.48321
1789.82109	0.48000
1787.89241	0.47808
1785.96372	0.47646
1784.03503	0.47474
1782.10635	0.47280
1780.17766	0.46985
1778.24897	0.46612
1776.32029	0.46319
1774.39160	0.46208
1772.46292	0.46220
1770.53423	0.46204
1768.60554	0.46100
1766.67686	0.45991
1764.74817	0.45936
1762.81948	0.45905
1760.89080	0.45876
1758.96211	0.45744
1757.03342	0.45346
1755.10474	0.44808
1753.17605	0.44447
1751.24736	0.44385
1749.31868	0.44511
1747.38999	0.44544
1745.46130	0.44264
1743.53262	0.43919
1741.60393	0.43912
1739.67524	0.44054
1737.74656	0.43876
1735.81787	0.43465
1733.88918	0.43317
1731.96050	0.43447
1730.03181	0.43344
1728.10312	0.43000
1726.17444	0.42945
1724.24575	0.43265
1722.31707	0.43573
1720.38838	0.43722
1718.45969	0.43754
1716.53101	0.43680
1714.60232	0.43641
1712.67363	0.43792
1710.74495	0.44068
1708.81626	0.44294
1706.88757	0.44454
1704.95889	0.44585
1703.03020	0.44554
1701.10151	0.44334
1699.17283	0.44244
1697.24414	0.44488
1695.31545	0.44787
1693.38677	0.44890
1691.45808	0.44920
1689.52939	0.44944
1687.60071	0.44841
1685.67202	0.44636
1683.74333	0.44550
1681.81465	0.44577
1679.88596	0.44633
1677.95728	0.44839
1676.02859	0.45090
1674.09990	0.45231
1672.17122	0.45324
1670.24253	0.45369
1668.31384	0.45413
1666.38516	0.45460
1664.45647	0.45354
1662.52778	0.45159
1660.59910	0.45021
1658.67041	0.44829
1656.74172	0.44673
1654.81304	0.44772
1652.88435	0.44847
1650.95566	0.44706
1649.02698	0.44636
1647.09829	0.44695
1645.16960	0.44691
1643.24092	0.44621
1641.31223	0.44632
1639.38354	0.44665
1637.45486	0.44491
1635.52617	0.44227
1633.59749	0.44192
1631.66880	0.44259
1629.74011	0.44139
1627.81143	0.43974
1625.88274	0.44089
1623.95405	0.44343
1622.02537	0.44316
1620.09668	0.44018
1618.16799	0.43678
1616.23931	0.43431
1614.31062	0.43392
1612.38193	0.43486
1610.45325	0.43548
1608.52456	0.43521
1606.59587	0.43503
1604.66719	0.43565
1602.73850	0.43604
1600.80981	0.43563
1598.88113	0.43464
1596.95244	0.43359
1595.02375	0.43334
1593.09507	0.43343
1591.16638	0.43235
1589.23770	0.43078
1587.30901	0.43102
1585.38032	0.43207
1583.45164	0.43184
1581.52295	0.43185
1579.59426	0.43318
1577.66558	0.43445
1575.73689	0.43485
1573.80820	0.43453
1571.87952	0.43418
1569.95083	0.43485
1568.02214	0.43787
1566.09346	0.44201
1564.16477	0.44385
1562.23608	0.44508
1560.30740	0.44857
1558.37871	0.45068
1556.45002	0.44944
1554.52134	0.44830
1552.59265	0.44893
1550.66396	0.45158
1548.73528	0.45584
1546.80659	0.45814
1544.87791	0.45673
1542.94922	0.45562
1541.02053	0.45651
1539.09185	0.45690
1537.16316	0.45677
1535.23447	0.45812
1533.30579	0.46116
1531.37710	0.46322
1529.44841	0.46259
1527.51973	0.46159
1525.59104	0.46270
1523.66235	0.46584
1521.73367	0.46915
1519.80498	0.47124
1517.87629	0.47158
1515.94761	0.46994
1514.01892	0.46881
1512.09023	0.47028
1510.16155	0.47243
1508.23286	0.47226
1506.30417	0.46956
1504.37549	0.46785
1502.44680	0.46876
1500.51812	0.47019
1498.58943	0.47042
1496.66074	0.46945
1494.73206	0.46830
1492.80337	0.46828
1490.87468	0.46967
1488.94600	0.47088
1487.01731	0.47016
1485.08862	0.46832
1483.15994	0.46744
1481.23125	0.46720
1479.30256	0.46546
1477.37388	0.46186
1475.44519	0.45797
1473.51650	0.45553
1471.58782	0.45450
1469.65913	0.45337
1467.73044	0.45149
1465.80176	0.44942
1463.87307	0.44795
1461.94438	0.44686
1460.01570	0.44642
1458.08701	0.44728
1456.15833	0.44822
1454.22964	0.44797
1452.30095	0.44849
1450.37227	0.45087
1448.44358	0.45198
1446.51489	0.45148
1444.58621	0.45165
1442.65752	0.45189
1440.72883	0.45039
1438.80015	0.44654
1436.87146	0.44400
1434.94277	0.44528
1433.01409	0.44730
1431.08540	0.44845
1429.15671	0.44952
1427.22803	0.45051
1425.29934	0.45050
1423.37065	0.44946
1421.44197	0.44878
1419.51328	0.44818
1417.58459	0.44749
1415.65591	0.44851
1413.72722	0.45029
1411.79854	0.44997
1409.86985	0.44902
1407.94116	0.44915
1406.01248	0.44861
1404.08379	0.44770
1402.15510	0.44721
1400.22642	0.44586
1398.29773	0.44531
1396.36904	0.44746
1394.44036	0.44863
1392.51167	0.44626
1390.58298	0.44361
1388.65430	0.44310
1386.72561	0.44382
1384.79692	0.44499
1382.86824	0.44661
1380.93955	0.44702
1379.01086	0.44566
1377.08218	0.44595
1375.15349	0.44798
1373.22480	0.44836
1371.29612	0.44780
1369.36743	0.44813
1367.43875	0.44830
1365.51006	0.44768
1363.58137	0.44723
1361.65269	0.44730
1359.72400	0.44768
1357.79531	0.44921
1355.86663	0.45217
1353.93794	0.45362
1352.00925	0.45189
1350.08057	0.45058
1348.15188	0.45121
1346.22319	0.45150
1344.29451	0.45259
1342.36582	0.45479
1340.43713	0.45545
1338.50845	0.45582
1336.57976	0.45753
1334.65107	0.45859
1332.72239	0.45778
1330.79370	0.45632
1328.86501	0.45656
1326.93633	0.45901
1325.00764	0.46067
1323.07896	0.45977
1321.15027	0.45859
1319.22158	0.45919
1317.29290	0.45962
1315.36421	0.45692
1313.43552	0.45342
1311.50684	0.45253
1309.57815	0.45235
1307.64946	0.45234
1305.72078	0.45399
1303.79209	0.45509
1301.86340	0.45463
1299.93472	0.45289
1298.00603	0.45036
1296.07734	0.45028
1294.14866	0.45311
1292.21997	0.45614
1290.29128	0.45781
1288.36260	0.45745
1286.43391	0.45653
1284.50522	0.45693
1282.57654	0.45718
1280.64785	0.45623
1278.71917	0.45584
1276.79048	0.45559
1274.86179	0.45418
1272.93311	0.45345
1271.00442	0.45453
1269.07573	0.45614
1267.14705	0.45761
1265.21836	0.45847
1263.28967	0.45682
1261.36099	0.45360
1259.43230	0.45234
1257.50361	0.45213
1255.57493	0.45100
1253.64624	0.45093
1251.71755	0.45228
1249.78887	0.45208
1247.86018	0.45021
1245.93149	0.44939
1244.00281	0.45025
1242.07412	0.45156
1240.14543	0.45320
1238.21675	0.45442
1236.28806	0.45250
1234.35937	0.44894
1232.43069	0.44902
1230.50200	0.45275
1228.57332	0.45594
1226.64463	0.45718
1224.71594	0.45793
1222.78726	0.45841
1220.85857	0.45828
1218.92988	0.45842
1217.00120	0.45821
1215.07251	0.45596
1213.14382	0.45337
1211.21514	0.45409
1209.28645	0.45740
1207.35776	0.45851
1205.42908	0.45644
1203.50039	0.45437
1201.57170	0.45291
1199.64302	0.45081
1197.71433	0.44907
1195.78564	0.44928
1193.85696	0.45090
1191.92827	0.45208
1189.99958	0.45169
1188.07090	0.45001
1186.14221	0.44890
1184.21353	0.44960
1182.28484	0.45088
1180.35615	0.45207
1178.42747	0.45469
1176.49878	0.45833
1174.57009	0.46071
1172.64141	0.46056
1170.71272	0.45641
1168.78403	0.45118
1166.85535	0.45082
1164.92666	0.45313
1162.99797	0.45367
1161.06929	0.45411
1159.14060	0.45572
1157.21191	0.45712
1155.28323	0.45757
1153.35454	0.45713
1151.42585	0.45737
1149.49717	0.45831
1147.56848	0.45668
1145.63979	0.45363
1143.71111	0.45261
1141.78242	0.45371
1139.85374	0.45631
1137.92505	0.45876
1135.99636	0.45997
1134.06768	0.46031
1132.13899	0.45902
1130.21030	0.45627
1128.28162	0.45450
1126.35293	0.45355
1124.42424	0.45047
1122.49556	0.44695
1120.56687	0.44622
1118.63818	0.44609
1116.70950	0.44512
1114.78081	0.44704
1112.85212	0.45243
1110.92344	0.45693
1108.99475	0.45890
1107.06606	0.45874
1105.13738	0.45772
1103.20869	0.45802
1101.28000	0.45878
1099.35132	0.45875
1097.42263	0.45873
1095.49395	0.45865
1093.56526	0.45962
1091.63657	0.46263
1089.70789	0.46450
1087.77920	0.46320
1085.85051	0.46027
1083.92183	0.45822
1081.99314	0.45810
1080.06445	0.45865
1078.13577	0.46055
1076.20708	0.46252
1074.27839	0.46169
1072.34971	0.46169
1070.42102	0.46413
1068.49233	0.46429
1066.56365	0.46225
1064.63496	0.46331
1062.70627	0.46761
1060.77759	0.46862
1058.84890	0.46409
1056.92021	0.46017
1054.99153	0.46193
1053.06284	0.46614
1051.13416	0.46610
1049.20547	0.46276
1047.27678	0.46319
1045.34810	0.46697
1043.41941	0.46899
1041.49072	0.46895
1039.56204	0.46738
1037.63335	0.46579
1035.70466	0.46817
1033.77598	0.47204
1031.84729	0.47150
1029.91860	0.46905
1027.98992	0.46854
1026.06123	0.46936
1024.13254	0.47263
1022.20386	0.47617
1020.27517	0.47527
1018.34648	0.47326
1016.41780	0.47542
1014.48911	0.47844
1012.56042	0.47890
1010.63174	0.48074
1008.70305	0.48478
1006.77437	0.48672
1004.84568	0.48627
1002.91699	0.48566
1000.98831	0.48537
999.05962	0.48598
997.13093	0.48684
995.20225	0.48609
993.27356	0.48489
991.34487	0.48448
989.41619	0.48541
987.48750	0.48738
985.55881	0.48721
983.63013	0.48474
981.70144	0.48251
979.77275	0.48164
977.84407	0.48322
975.91538	0.48658
973.98669	0.48905
972.05801	0.49015
970.12932	0.49168
968.20063	0.49289
966.27195	0.49216
964.34326	0.49231
962.41458	0.49555
960.48589	0.49836
958.55720	0.49763
956.62852	0.49547
954.69983	0.49409
952.77114	0.49258
950.84246	0.49222
948.91377	0.49362
946.98508	0.49440
945.05640	0.49549
943.12771	0.49766
941.19902	0.49853
939.27034	0.49649
937.34165	0.49363
935.41296	0.49442
933.48428	0.49802
931.55559	0.49963
929.62690	0.49776
927.69822	0.49596
925.76953	0.49823
923.84084	0.50300
921.91216	0.50570
919.98347	0.50551
918.05479	0.50571
916.12610	0.50650
914.19741	0.50628
912.26873	0.50672
910.34004	0.50717
908.41135	0.50528
906.48267	0.50173
904.55398	0.49889
902.62529	0.49954
900.69661	0.50459
898.76792	0.50970
896.83923	0.51030
894.91055	0.50958
892.98186	0.51153
891.05317	0.51383
889.12449	0.51282
887.19580	0.50876
885.26711	0.50593
883.33843	0.50721
881.40974	0.50942
879.48105	0.50707
877.55237	0.50326
875.62368	0.50501
873.69500	0.50792
871.76631	0.50599
869.83762	0.50355
867.90894	0.50434
865.98025	0.50816
864.05156	0.51348
862.12288	0.51400
860.19419	0.50856
858.26550	0.50597
856.33682	0.50789
854.40813	0.50900
852.47944	0.50999
850.55076	0.51043
848.62207	0.50835
846.69338	0.50548
844.76470	0.50191
842.83601	0.49890
840.90732	0.49891
838.97864	0.50143
837.04995	0.50432
835.12126	0.50367
833.19258	0.49909
831.26389	0.49584
829.33521	0.49679
827.40652	0.49853
825.47783	0.49894
823.54915	0.50258
821.62046	0.50863
819.69177	0.50924
817.76309	0.50414
815.83440	0.49950
813.90571	0.49631
811.97703	0.49058
810.04834	0.48421
808.11965	0.48224
806.19097	0.48365
804.26228	0.48657
802.33359	0.49184
800.40491	0.49686
798.47622	0.49521
796.54753	0.49036
794.61885	0.49192
792.69016	0.49452
790.76147	0.49045
788.83279	0.48492
786.90410	0.48142
784.97542	0.47805
783.04673	0.47555
781.11804	0.47669
779.18936	0.47901
777.26067	0.47560
775.33198	0.46693
773.40330	0.45955
771.47461	0.45464
769.54592	0.45094
767.61724	0.45115
765.68855	0.45654
763.75986	0.46112
761.83118	0.45915
759.90249	0.45538
757.97380	0.45519
756.04512	0.45383
754.11643	0.44850
752.18774	0.44490
750.25906	0.44518
748.33037	0.44517
746.40168	0.44457
744.47300	0.44529
742.54431	0.44549
740.61562	0.44372
738.68694	0.44053
736.75825	0.43628
734.82957	0.42906
732.90088	0.42034
730.97219	0.41828
729.04351	0.42297
727.11482	0.42380
725.18613	0.41839
723.25745	0.41574
721.32876	0.42050
719.40007	0.42799
717.47139	0.43167
715.54270	0.42920
713.61401	0.42246
711.68533	0.41332
709.75664	0.40462
707.82795	0.40213
705.89927	0.40786
703.97058	0.41342
702.04189	0.41132
700.11321	0.40526
698.18452	0.39807
696.25583	0.39249
694.32715	0.39355
692.39846	0.39588
690.46978	0.39683
688.54109	0.40348
686.61240	0.41109
684.68372	0.41139
682.75503	0.41036
680.82634	0.41209
678.89766	0.41028
676.96897	0.40379
675.04028	0.39992
673.11160	0.40060
671.18291	0.39973
669.25422	0.39420
667.32554	0.38767
665.39685	0.38831
663.46816	0.39915
661.53948	0.40687
659.61079	0.40147
657.68210	0.39123
655.75342	0.38383
653.82473	0.38208
651.89604	0.38316
649.96736	0.37910
648.03867	0.36994
646.10999	0.36458
644.18130	0.37163
642.25261	0.38578
640.32393	0.39226
638.39524	0.38652
636.46655	0.37578
634.53787	0.36952
632.60918	0.37046
630.68049	0.37520
628.75181	0.37834
626.82312	0.37326
624.89443	0.36148
622.96575	0.35227
621.03706	0.34994
619.10837	0.35453
617.17969	0.36202
615.25100	0.36331
613.32231	0.35833
611.39363	0.35351
609.46494	0.34745
607.53625	0.34158
605.60757	0.34585
603.67888	0.35440
601.75020	0.35172
599.82151	0.34841
597.89282	0.35612
595.96414	0.35744
594.03545	0.33995
592.10676	0.32209
590.17808	0.32075
588.24939	0.32719
586.32070	0.32987
584.39202	0.32727
582.46333	0.31100
580.53464	0.28420
578.60596	0.27771
576.67727	0.30090
574.74858	0.31420
572.81990	0.30069
570.89121	0.28884
568.96252	0.29085
567.03384	0.28707
565.10515	0.26846
563.17646	0.25621
561.24778	0.25781
559.31909	0.25651
557.39041	0.25279
555.46172	0.24999
553.53303	0.24446
551.60435	0.24708
549.67566	0.25637
547.74697	0.25828
545.81829	0.24421
543.88960	0.21893
541.96091	0.21232
540.03223	0.23333
538.10354	0.24906
536.17485	0.23847
534.24617	0.19393
532.31748	0.08941
530.38879	0.00451
528.46011	0.05287
526.53142	0.15219
524.60273	0.17309
522.67405	0.13734
520.74536	0.14355
518.81667	0.20238
516.88799	0.23034
514.95930	0.26732
513.03062	0.32958
511.10193	0.38757
509.17324	0.49893
507.24456	0.49633
505.31587	0.28420
503.38718	0.14313
501.45850	0.34845
499.52981	1.19319
497.60112	1.48348
495.67244	-0.45380
493.74375	1.18008
491.81506	3.65764
489.88638	2.12737
487.95769	0.73663
486.02900	0.21266
484.10032	0.09865
482.17163	0.14528
480.24294	0.26929
478.31426	0.49138
476.38557	0.95196
474.45688	1.73955
472.52820	1.73955
470.59951	-10.56546
468.67083	-10.56546
466.74214	3.99509
464.81345	1.17679
462.88477	1.36769
460.95608	1.46853
459.02739	0.32488
457.09871	-0.10672
455.17002	-0.08746
453.24133	-0.01729
451.31265	0.03411
449.38396	-0.20434
447.45527	-0.65850
445.52659	-2.91005
443.59790	-0.14707
441.66921	-0.59533
439.74053	-0.59533
437.81184	4.51595
435.88315	8.07556
433.95447	15.27814
432.02578	2.26926
430.09709	-0.12799
428.16841	-0.25261
426.23972	-0.10958
424.31104	-0.10363
422.38235	-0.46898
420.45366	-0.46898
418.52498	1.20911
416.59629	0.73548
414.66760	0.61750
412.73892	0.51485
410.81023	0.66635
408.88154	0.56094
406.95286	0.28086
405.02417	0.04757
403.09548	1.02915
401.16680	-9.95192
399.23811	-9.95192
