3996.23848	0.33907
3994.30979	0.33867
3992.38110	0.34066
3990.45242	0.33790
3988.52373	0.33158
3986.59504	0.33061
3984.66636	0.33356
3982.73767	0.33403
3980.80898	0.33470
3978.88030	0.33764
3976.95161	0.33773
3975.02292	0.33395
3973.09424	0.33324
3971.16555	0.33635
3969.23687	0.33692
3967.30818	0.33666
3965.37949	0.33853
3963.45081	0.33809
3961.52212	0.33393
3959.59343	0.33089
3957.66475	0.33173
3955.73606	0.33505
3953.80737	0.33855
3951.87869	0.33882
3949.95000	0.33574
3948.02131	0.33446
3946.09263	0.33533
3944.16394	0.33524
3942.23525	0.33618
3940.30657	0.33888
3938.37788	0.33920
3936.44919	0.33667
3934.52051	0.33462
3932.59182	0.33355
3930.66313	0.33165
3928.73445	0.33017
3926.80576	0.33216
3924.87708	0.33535
3922.94839	0.33608
3921.01970	0.33524
3919.09102	0.33417
3917.16233	0.33431
3915.23364	0.33546
3913.30496	0.33502
3911.37627	0.33368
3909.44758	0.33356
3907.51890	0.33606
3905.59021	0.33984
3903.66152	0.33929
3901.73284	0.33540
3899.80415	0.33409
3897.87546	0.33334
3895.94678	0.33166
3894.01809	0.33305
3892.08940	0.33516
3890.16072	0.33407
3888.23203	0.33249
3886.30334	0.33191
3884.37466	0.33183
3882.44597	0.33297
3880.51729	0.33366
3878.58860	0.33359
3876.65991	0.33524
3874.73123	0.33740
3872.80254	0.33681
3870.87385	0.33430
3868.94517	0.33481
3867.01648	0.33903
3865.08779	0.34162
3863.15911	0.34251
3861.23042	0.34466
3859.30173	0.34377
3857.37305	0.33813
3855.44436	0.33419
3853.51567	0.33336
3851.58699	0.33223
3849.65830	0.33318
3847.72961	0.33613
3845.80093	0.33482
3843.87224	0.33012
3841.94355	0.32819
3840.01487	0.32954
3838.08618	0.33129
3836.15750	0.33167
3834.22881	0.33127
3832.30012	0.33053
3830.37144	0.32952
3828.44275	0.33130
3826.51406	0.33514
3824.58538	0.33639
3822.65669	0.33652
3820.72800	0.33751
3818.79932	0.33742
3816.87063	0.33712
3814.94194	0.33747
3813.01326	0.33510
3811.08457	0.33071
3809.15588	0.33049
3807.22720	0.33436
3805.29851	0.33525
3803.36982	0.33224
3801.44114	0.33038
3799.51245	0.33060
3797.58376	0.33039
3795.65508	0.32832
3793.72639	0.32516
3791.79771	0.32311
3789.86902	0.32358
3787.94033	0.32718
3786.01165	0.33200
3784.08296	0.33388
3782.15427	0.33231
3780.22559	0.32923
3778.29690	0.32634
3776.36821	0.32647
3774.43953	0.33099
3772.51084	0.33611
3770.58215	0.33680
3768.65347	0.33480
3766.72478	0.33353
3764.79609	0.33139
3762.86741	0.32746
3760.93872	0.32442
3759.01003	0.32514
3757.08135	0.32853
3755.15266	0.33053
3753.22397	0.33063
3751.29529	0.33167
3749.36660	0.33412
3747.43792	0.33532
3745.50923	0.33343
3743.58054	0.33011
3741.65186	0.32751
3739.72317	0.32457
3737.79448	0.32153
3735.86580	0.32123
3733.93711	0.32337
3732.00842	0.32495
3730.07974	0.32453
3728.15105	0.32520
3726.22236	0.32993
3724.29368	0.33385
3722.36499	0.33117
3720.43630	0.32543
3718.50762	0.32226
3716.57893	0.32054
3714.65024	0.32082
3712.72156	0.32605
3710.79287	0.33029
3708.86418	0.32932
3706.93550	0.32699
3705.00681	0.32339
3703.07812	0.32006
3701.14944	0.32131
3699.22075	0.32375
3697.29207	0.32289
3695.36338	0.32040
3693.43469	0.31869
3691.50601	0.31753
3689.57732	0.31570
3687.64863	0.31673
3685.71995	0.32434
3683.79126	0.33163
3681.86257	0.33142
3679.93389	0.32648
3678.00520	0.32158
3676.07651	0.31937
3674.14783	0.32049
3672.21914	0.31955
3670.29045	0.31353
3668.36177	0.30902
3666.43308	0.30947
3664.50439	0.31189
3662.57571	0.31421
3660.64702	0.31684
3658.71833	0.32077
3656.78965	0.32353
3654.86096	0.32422
3652.93228	0.32416
3651.00359	0.32280
3649.07490	0.32178
3647.14622	0.32169
3645.21753	0.32153
3643.28884	0.32211
3641.36016	0.32316
3639.43147	0.32435
3637.50278	0.32315
3635.57410	0.31639
3633.64541	0.31097
3631.71672	0.31371
3629.78804	0.31792
3627.85935	0.31805
3625.93066	0.31697
3624.00198	0.31643
3622.07329	0.31646
3620.14460	0.31831
3618.21592	0.32198
3616.28723	0.32438
3614.35854	0.32307
3612.42986	0.31939
3610.50117	0.31623
3608.57249	0.31475
3606.64380	0.31611
3604.71511	0.32073
3602.78643	0.32488
3600.85774	0.32458
3598.92905	0.31997
3597.00037	0.31480
3595.07168	0.31340
3593.14299	0.31626
3591.21431	0.31785
3589.28562	0.31464
3587.35693	0.31215
3585.42825	0.31440
3583.49956	0.31766
3581.57087	0.31881
3579.64219	0.31830
3577.71350	0.31769
3575.78481	0.31866
3573.85613	0.32144
3571.92744	0.32336
3569.99875	0.32289
3568.07007	0.32285
3566.14138	0.32417
3564.21270	0.32363
3562.28401	0.32209
3560.35532	0.32210
3558.42664	0.32052
3556.49795	0.31464
3554.56926	0.30889
3552.64058	0.30905
3550.71189	0.31305
3548.78320	0.31663
3546.85452	0.32034
3544.92583	0.32400
3542.99714	0.32537
3541.06846	0.32321
3539.13977	0.31919
3537.21108	0.31761
3535.28240	0.32081
3533.35371	0.32535
3531.42502	0.32629
3529.49634	0.32381
3527.56765	0.32016
3525.63896	0.31634
3523.71028	0.31465
3521.78159	0.31776
3519.85291	0.32373
3517.92422	0.32649
3515.99553	0.32352
3514.06685	0.31987
3512.13816	0.32001
3510.20947	0.32018
3508.28079	0.31855
3506.35210	0.32014
3504.42341	0.32446
3502.49473	0.32572
3500.56604	0.32433
3498.63735	0.32441
3496.70867	0.32422
3494.77998	0.32175
3492.85129	0.32007
3490.92261	0.32080
3488.99392	0.32147
3487.06523	0.31894
3485.13655	0.31466
3483.20786	0.31400
3481.27917	0.31762
3479.35049	0.32187
3477.42180	0.32565
3475.49312	0.32629
3473.56443	0.32181
3471.63574	0.31711
3469.70706	0.31521
3467.77837	0.31505
3465.84968	0.31649
3463.92100	0.31852
3461.99231	0.31985
3460.06362	0.32294
3458.13494	0.32702
3456.20625	0.32546
3454.27756	0.31939
3452.34888	0.31465
3450.42019	0.31311
3448.49150	0.31652
3446.56282	0.32215
3444.63413	0.32489
3442.70544	0.32547
3440.77676	0.32585
3438.84807	0.32580
3436.91938	0.32406
3434.99070	0.32005
3433.06201	0.31690
3431.13333	0.31744
3429.20464	0.32012
3427.27595	0.32328
3425.34727	0.32613
3423.41858	0.32603
3421.48989	0.32212
3419.56121	0.31866
3417.63252	0.31793
3415.70383	0.31793
3413.77515	0.31819
3411.84646	0.31973
3409.91777	0.32239
3407.98909	0.32408
3406.06040	0.32304
3404.13171	0.31984
3402.20303	0.31729
3400.27434	0.31747
3398.34565	0.31743
3396.41697	0.31676
3394.48828	0.31962
3392.55959	0.32519
3390.63091	0.32842
3388.70222	0.32594
3386.77354	0.32022
3384.84485	0.31823
3382.91616	0.32103
3380.98748	0.32419
3379.05879	0.32570
3377.13010	0.32339
3375.20142	0.31927
3373.27273	0.31943
3371.34404	0.32147
3369.41536	0.32205
3367.48667	0.32311
3365.55798	0.32416
3363.62930	0.32579
3361.70061	0.33058
3359.77192	0.33477
3357.84324	0.33365
3355.91455	0.33053
3353.98586	0.32690
3352.05718	0.32262
3350.12849	0.32202
3348.19980	0.32341
3346.27112	0.32268
3344.34243	0.32252
3342.41375	0.32514
3340.48506	0.32706
3338.55637	0.32631
3336.62769	0.32477
3334.69900	0.32209
3332.77031	0.31896
3330.84163	0.31804
3328.91294	0.32058
3326.98425	0.32764
3325.05557	0.33586
3323.12688	0.33914
3321.19819	0.33589
3319.26951	0.32877
3317.34082	0.32125
3315.41213	0.31691
3313.48345	0.31763
3311.55476	0.32066
3309.62607	0.32265
3307.69739	0.32327
3305.76870	0.32281
3303.84001	0.32215
3301.91133	0.32310
3299.98264	0.32518
3298.05396	0.32651
3296.12527	0.32653
3294.19658	0.32537
3292.26790	0.32323
3290.33921	0.32082
3288.41052	0.32119
3286.48184	0.32490
3284.55315	0.32637
3282.62446	0.32414
3280.69578	0.32217
3278.76709	0.32113
3276.83840	0.32094
3274.90972	0.32163
3272.98103	0.32191
3271.05234	0.32334
3269.12366	0.32736
3267.19497	0.32976
3265.26628	0.32679
3263.33760	0.32301
3261.40891	0.32291
3259.48022	0.32251
3257.55154	0.31848
3255.62285	0.31388
3253.69417	0.31545
3251.76548	0.32314
3249.83679	0.32644
3247.90811	0.32429
3245.97942	0.32463
3244.05073	0.32525
3242.12205	0.32212
3240.19336	0.31927
3238.26467	0.31949
3236.33599	0.32130
3234.40730	0.32389
3232.47861	0.32499
3230.54993	0.32207
3228.62124	0.31848
3226.69255	0.31822
3224.76387	0.32063
3222.83518	0.32338
3220.90649	0.32369
3218.97781	0.32171
3217.04912	0.32035
3215.12043	0.31961
3213.19175	0.31935
3211.26306	0.32092
3209.33437	0.32185
3207.40569	0.31954
3205.47700	0.31566
3203.54832	0.31228
3201.61963	0.31208
3199.69094	0.31669
3197.76226	0.32279
3195.83357	0.32623
3193.90488	0.32591
3191.97620	0.32447
3190.04751	0.32439
3188.11882	0.32377
3186.19014	0.32096
3184.26145	0.31888
3182.33276	0.32140
3180.40408	0.32630
3178.47539	0.32779
3176.54670	0.32516
3174.61802	0.32273
3172.68933	0.32172
3170.76064	0.31856
3168.83196	0.31456
3166.90327	0.31347
3164.97458	0.31443
3163.04590	0.31671
3161.11721	0.31927
3159.18853	0.31959
3157.25984	0.31767
3155.33115	0.31697
3153.40247	0.31953
3151.47378	0.32269
3149.54509	0.32312
3147.61641	0.32063
3145.68772	0.31913
3143.75903	0.32020
3141.83035	0.32081
3139.90166	0.32128
3137.97297	0.32343
3136.04429	0.32485
3134.11560	0.32361
3132.18691	0.32212
3130.25823	0.32142
3128.32954	0.31943
3126.40085	0.31611
3124.47217	0.31507
3122.54348	0.32049
3120.61479	0.32777
3118.68611	0.32777
3116.75742	0.32287
3114.82874	0.32005
3112.90005	0.31963
3110.97136	0.32028
3109.04268	0.32168
3107.11399	0.32214
3105.18530	0.32116
3103.25662	0.32109
3101.32793	0.32198
3099.39924	0.32137
3097.47056	0.31972
3095.54187	0.31958
3093.61318	0.32213
3091.68450	0.32516
3089.75581	0.32533
3087.82712	0.32351
3085.89844	0.32234
3083.96975	0.32120
3082.04106	0.31893
3080.11238	0.31699
3078.18369	0.31622
3076.25500	0.31627
3074.32632	0.31773
3072.39763	0.31954
3070.46895	0.31929
3068.54026	0.31745
3066.61157	0.31649
3064.68289	0.31797
3062.75420	0.32160
3060.82551	0.32328
3058.89683	0.32048
3056.96814	0.31843
3055.03945	0.31987
3053.11077	0.32118
3051.18208	0.32107
3049.25339	0.32091
3047.32471	0.32117
3045.39602	0.32074
3043.46733	0.31990
3041.53865	0.31970
3039.60996	0.31858
3037.68127	0.31721
3035.75259	0.31952
3033.82390	0.32401
3031.89521	0.32428
3029.96653	0.32049
3028.03784	0.31816
3026.10916	0.31833
3024.18047	0.31911
3022.25178	0.31988
3020.32310	0.32023
3018.39441	0.31960
3016.46572	0.31916
3014.53704	0.32033
3012.60835	0.32051
3010.67966	0.31738
3008.75098	0.31454
3006.82229	0.31496
3004.89360	0.31681
3002.96492	0.31857
3001.03623	0.31982
2999.10754	0.32095
2997.17886	0.32265
2995.25017	0.32256
2993.32148	0.32049
2991.39280	0.31971
2989.46411	0.32006
2987.53542	0.32077
2985.60674	0.32342
2983.67805	0.32718
2981.74937	0.33051
2979.82068	0.33307
2977.89199	0.33246
2975.96331	0.32931
2974.03462	0.32767
2972.10593	0.32686
2970.17725	0.32498
2968.24856	0.32362
2966.31987	0.32486
2964.39119	0.32739
2962.46250	0.32728
2960.53381	0.32403
2958.60513	0.32156
2956.67644	0.32267
2954.74775	0.32518
2952.81907	0.32573
2950.89038	0.32411
2948.96169	0.32231
2947.03301	0.32268
2945.10432	0.32489
2943.17563	0.32634
2941.24695	0.32567
2939.31826	0.32370
2937.38958	0.32264
2935.46089	0.32400
2933.53220	0.32670
2931.60352	0.32738
2929.67483	0.32436
2927.74614	0.32043
2925.81746	0.31993
2923.88877	0.32346
2921.96008	0.32554
2920.03140	0.32261
2918.10271	0.31980
2916.17402	0.32194
2914.24534	0.32622
2912.31665	0.32928
2910.38796	0.33065
2908.45928	0.32872
2906.53059	0.32388
2904.60190	0.32170
2902.67322	0.32434
2900.74453	0.32710
2898.81584	0.32712
2896.88716	0.32599
2894.95847	0.32529
2893.02979	0.32478
2891.10110	0.32380
2889.17241	0.32358
2887.24373	0.32478
2885.31504	0.32508
2883.38635	0.32410
2881.45767	0.32493
2879.52898	0.32774
2877.60029	0.32931
2875.67161	0.32844
2873.74292	0.32556
2871.81423	0.32208
2869.88555	0.32075
2867.95686	0.32173
2866.02817	0.32277
2864.09949	0.32250
2862.17080	0.32062
2860.24211	0.31891
2858.31343	0.31984
2856.38474	0.32251
2854.45605	0.32424
2852.52737	0.32474
2850.59868	0.32417
2848.67000	0.32270
2846.74131	0.32187
2844.81262	0.32159
2842.88394	0.32156
2840.95525	0.32235
2839.02656	0.32358
2837.09788	0.32447
2835.16919	0.32365
2833.24050	0.32116
2831.31182	0.31929
2829.38313	0.31963
2827.45444	0.32181
2825.52576	0.32408
2823.59707	0.32405
2821.66838	0.32133
2819.73970	0.31888
2817.81101	0.31879
2815.88232	0.31926
2813.95364	0.31797
2812.02495	0.31684
2810.09626	0.31941
2808.16758	0.32438
2806.23889	0.32688
2804.31021	0.32503
2802.38152	0.32196
2800.45283	0.31988
2798.52415	0.31843
2796.59546	0.31831
2794.66677	0.32009
2792.73809	0.32241
2790.80940	0.32256
2788.88071	0.31991
2786.95203	0.31767
2785.02334	0.31746
2783.09465	0.31779
2781.16597	0.31789
2779.23728	0.31777
2777.30859	0.31749
2775.37991	0.31777
2773.45122	0.31865
2771.52253	0.31826
2769.59385	0.31690
2767.66516	0.31804
2765.73647	0.32085
2763.80779	0.32218
2761.87910	0.32259
2759.95042	0.32257
2758.02173	0.32229
2756.09304	0.32327
2754.16436	0.32408
2752.23567	0.32234
2750.30698	0.32014
2748.37830	0.31903
2746.44961	0.31780
2744.52092	0.31780
2742.59224	0.31957
2740.66355	0.32112
2738.73486	0.32145
2736.80618	0.31942
2734.87749	0.31699
2732.94880	0.31816
2731.02012	0.32046
2729.09143	0.32120
2727.16274	0.32292
2725.23406	0.32444
2723.30537	0.32295
2721.37668	0.32001
2719.44800	0.31806
2717.51931	0.31839
2715.59062	0.32019
2713.66194	0.32120
2711.73325	0.32165
2709.80457	0.32336
2707.87588	0.32606
2705.94719	0.32859
2704.01851	0.32903
2702.08982	0.32607
2700.16113	0.32284
2698.23245	0.32196
2696.30376	0.32232
2694.37507	0.32233
2692.44639	0.32159
2690.51770	0.32196
2688.58901	0.32357
2686.66033	0.32401
2684.73164	0.32404
2682.80295	0.32456
2680.87427	0.32379
2678.94558	0.32203
2677.01689	0.31964
2675.08821	0.31697
2673.15952	0.31737
2671.23083	0.32049
2669.30215	0.32121
2667.37346	0.31877
2665.44478	0.31656
2663.51609	0.31578
2661.58740	0.31696
2659.65872	0.32052
2657.73003	0.32386
2655.80134	0.32472
2653.87266	0.32404
2651.94397	0.32257
2650.01528	0.32086
2648.08660	0.32049
2646.15791	0.32151
2644.22922	0.32270
2642.30054	0.32250
2640.37185	0.32158
2638.44316	0.32312
2636.51448	0.32599
2634.58579	0.32633
2632.65710	0.32401
2630.72842	0.32246
2628.79973	0.32364
2626.87104	0.32511
2624.94236	0.32440
2623.01367	0.32236
2621.08499	0.32107
2619.15630	0.32135
2617.22761	0.32251
2615.29893	0.32287
2613.37024	0.32249
2611.44155	0.32294
2609.51287	0.32336
2607.58418	0.32302
2605.65549	0.32280
2603.72681	0.32245
2601.79812	0.32228
2599.86943	0.32322
2597.94075	0.32342
2596.01206	0.32082
2594.08337	0.31836
2592.15469	0.31904
2590.22600	0.32055
2588.29731	0.31999
2586.36863	0.31891
2584.43994	0.32071
2582.51125	0.32448
2580.58257	0.32623
2578.65388	0.32550
2576.72520	0.32453
2574.79651	0.32326
2572.86782	0.32142
2570.93914	0.32061
2569.01045	0.32167
2567.08176	0.32311
2565.15308	0.32297
2563.22439	0.32252
2561.29570	0.32387
2559.36702	0.32564
2557.43833	0.32589
2555.50964	0.32548
2553.58096	0.32569
2551.65227	0.32539
2549.72358	0.32423
2547.79490	0.32353
2545.86621	0.32217
2543.93752	0.31934
2542.00884	0.31797
2540.08015	0.32020
2538.15146	0.32368
2536.22278	0.32392
2534.29409	0.32123
2532.36541	0.32093
2530.43672	0.32342
2528.50803	0.32415
2526.57935	0.32215
2524.65066	0.32020
2522.72197	0.31968
2520.79329	0.31941
2518.86460	0.31845
2516.93591	0.31746
2515.00723	0.31801
2513.07854	0.31986
2511.14985	0.32083
2509.22117	0.32074
2507.29248	0.32053
2505.36379	0.32119
2503.43511	0.32263
2501.50642	0.32131
2499.57773	0.31729
2497.64905	0.31620
2495.72036	0.31900
2493.79167	0.32157
2491.86299	0.32225
2489.93430	0.32164
2488.00562	0.32073
2486.07693	0.32091
2484.14824	0.32135
2482.21956	0.32096
2480.29087	0.32189
2478.36218	0.32463
2476.43350	0.32612
2474.50481	0.32443
2472.57612	0.32078
2470.64744	0.31819
2468.71875	0.31791
2466.79006	0.31898
2464.86138	0.32040
2462.93269	0.32113
2461.00400	0.32127
2459.07532	0.32178
2457.14663	0.32146
2455.21794	0.32004
2453.28926	0.32018
2451.36057	0.32242
2449.43188	0.32418
2447.50320	0.32325
2445.57451	0.32132
2443.64583	0.32149
2441.71714	0.32217
2439.78845	0.32140
2437.85977	0.32053
2435.93108	0.32011
2434.00239	0.31925
2432.07371	0.31768
2430.14502	0.31629
2428.21633	0.31502
2426.28765	0.31373
2424.35896	0.31462
2422.43027	0.31856
2420.50159	0.32250
2418.57290	0.32360
2416.64421	0.32306
2414.71553	0.32289
2412.78684	0.32229
2410.85815	0.32080
2408.92947	0.31961
2407.00078	0.31987
2405.07209	0.32132
2403.14341	0.32224
2401.21472	0.32227
2399.28604	0.32175
2397.35735	0.32140
2395.42866	0.32195
2393.49998	0.32152
2391.57129	0.32095
2389.64260	0.32279
2387.71392	0.32407
2385.78523	0.32280
2383.85654	0.32155
2381.92786	0.32193
2379.99917	0.32361
2378.07048	0.32527
2376.14180	0.32519
2374.21311	0.32280
2372.28442	0.32002
2370.35574	0.31905
2368.42705	0.31933
2366.49836	0.31992
2364.56968	0.32191
2362.64099	0.32502
2360.71230	0.32667
2358.78362	0.32649
2356.85493	0.32525
2354.92625	0.32267
2352.99756	0.32013
2351.06887	0.31959
2349.14019	0.32079
2347.21150	0.32181
2345.28281	0.32110
2343.35413	0.31988
2341.42544	0.32054
2339.49675	0.32217
2337.56807	0.32311
2335.63938	0.32417
2333.71069	0.32553
2331.78201	0.32596
2329.85332	0.32522
2327.92463	0.32413
2325.99595	0.32262
2324.06726	0.32147
2322.13857	0.32270
2320.20989	0.32527
2318.28120	0.32626
2316.35251	0.32481
2314.42383	0.32214
2312.49514	0.32043
2310.56646	0.31976
2308.63777	0.31922
2306.70908	0.32056
2304.78040	0.32322
2302.85171	0.32432
2300.92302	0.32523
2298.99434	0.32726
2297.06565	0.32778
2295.13696	0.32482
2293.20828	0.31980
2291.27959	0.31598
2289.35090	0.31540
2287.42222	0.31711
2285.49353	0.31787
2283.56484	0.31651
2281.63616	0.31585
2279.70747	0.31759
2277.77878	0.32059
2275.85010	0.32365
2273.92141	0.32413
2271.99272	0.32077
2270.06404	0.31870
2268.13535	0.32110
2266.20667	0.32341
2264.27798	0.32313
2262.34929	0.32304
2260.42061	0.32329
2258.49192	0.32198
2256.56323	0.32034
2254.63455	0.31954
2252.70586	0.31919
2250.77717	0.31888
2248.84849	0.31856
2246.91980	0.31977
2244.99111	0.32167
2243.06243	0.32088
2241.13374	0.31880
2239.20505	0.31968
2237.27637	0.32370
2235.34768	0.32675
2233.41899	0.32559
2231.49031	0.32279
2229.56162	0.32156
2227.63293	0.32000
2225.70425	0.31802
2223.77556	0.31822
2221.84687	0.31988
2219.91819	0.32074
2217.98950	0.32085
2216.06082	0.32088
2214.13213	0.32056
2212.20344	0.32011
2210.27476	0.31864
2208.34607	0.31650
2206.41738	0.31749
2204.48870	0.32161
2202.56001	0.32423
2200.63132	0.32332
2198.70264	0.32150
2196.77395	0.32150
2194.84526	0.32105
2192.91658	0.31860
2190.98789	0.31825
2189.05920	0.32040
2187.13052	0.32107
2185.20183	0.32056
2183.27314	0.32091
2181.34446	0.32168
2179.41577	0.32184
2177.48708	0.32107
2175.55840	0.31959
2173.62971	0.31818
2171.70103	0.31769
2169.77234	0.31817
2167.84365	0.31968
2165.91497	0.32120
2163.98628	0.32081
2162.05759	0.31959
2160.12891	0.31940
2158.20022	0.31911
2156.27153	0.31773
2154.34285	0.31673
2152.41416	0.31771
2150.48547	0.31998
2148.55679	0.32075
2146.62810	0.31859
2144.69941	0.31631
2142.77073	0.31753
2140.84204	0.32064
2138.91335	0.32224
2136.98467	0.32320
2135.05598	0.32443
2133.12729	0.32416
2131.19861	0.32262
2129.26992	0.32262
2127.34124	0.32417
2125.41255	0.32380
2123.48386	0.32178
2121.55518	0.32111
2119.62649	0.32035
2117.69780	0.31773
2115.76912	0.31535
2113.84043	0.31533
2111.91174	0.31779
2109.98306	0.32049
2108.05437	0.32153
2106.12568	0.32230
2104.19700	0.32351
2102.26831	0.32333
2100.33962	0.32156
2098.41094	0.32042
2096.48225	0.32109
2094.55356	0.32223
2092.62488	0.32269
2090.69619	0.32264
2088.76750	0.32143
2086.83882	0.31956
2084.91013	0.31900
2082.98145	0.31961
2081.05276	0.32021
2079.12407	0.32017
2077.19539	0.31954
2075.26670	0.31953
2073.33801	0.32029
2071.40933	0.32069
2069.48064	0.31968
2067.55195	0.31775
2065.62327	0.31747
2063.69458	0.31946
2061.76589	0.32064
2059.83721	0.31975
2057.90852	0.32011
2055.97983	0.32232
2054.05115	0.32299
2052.12246	0.32215
2050.19377	0.32106
2048.26509	0.31947
2046.33640	0.31894
2044.40771	0.32037
2042.47903	0.32261
2040.55034	0.32458
2038.62166	0.32456
2036.69297	0.32252
2034.76428	0.31999
2032.83560	0.31850
2030.90691	0.31956
2028.97822	0.32100
2027.04954	0.32007
2025.12085	0.31844
2023.19216	0.31792
2021.26348	0.31785
2019.33479	0.31748
2017.40610	0.31654
2015.47742	0.31600
2013.54873	0.31685
2011.62004	0.31839
2009.69136	0.31982
2007.76267	0.32034
2005.83398	0.32054
2003.90530	0.32124
2001.97661	0.32062
2000.04792	0.31864
1998.11924	0.31801
1996.19055	0.31884
1994.26187	0.31843
1992.33318	0.31701
1990.40449	0.31768
1988.47581	0.31989
1986.54712	0.32084
1984.61843	0.32060
1982.68975	0.32089
1980.76106	0.32150
1978.83237	0.32079
1976.90369	0.31968
1974.97500	0.32027
1973.04631	0.32177
1971.11763	0.32292
1969.18894	0.32357
1967.26025	0.32281
1965.33157	0.32100
1963.40288	0.31921
1961.47419	0.31731
1959.54551	0.31648
1957.61682	0.31853
1955.68813	0.32200
1953.75945	0.32320
1951.83076	0.32106
1949.90208	0.31811
1947.97339	0.31727
1946.04470	0.31847
1944.11602	0.32012
1942.18733	0.32157
1940.25864	0.32151
1938.32996	0.32055
1936.40127	0.32038
1934.47258	0.31977
1932.54390	0.31879
1930.61521	0.31901
1928.68652	0.31941
1926.75784	0.31963
1924.82915	0.32096
1922.90046	0.32282
1920.97178	0.32330
1919.04309	0.32185
1917.11440	0.32011
1915.18572	0.31977
1913.25703	0.32045
1911.32834	0.32049
1909.39966	0.31946
1907.47097	0.31933
1905.54229	0.32062
1903.61360	0.32202
1901.68491	0.32361
1899.75623	0.32432
1897.82754	0.32284
1895.89885	0.32090
1893.97017	0.32063
1892.04148	0.32138
1890.11279	0.32143
1888.18411	0.32095
1886.25542	0.32061
1884.32673	0.32088
1882.39805	0.32130
1880.46936	0.32016
1878.54067	0.31816
1876.61199	0.31764
1874.68330	0.31866
1872.75461	0.31995
1870.82593	0.32061
1868.89724	0.32036
1866.96855	0.32051
1865.03987	0.32179
1863.11118	0.32181
1861.18250	0.31959
1859.25381	0.31833
1857.32512	0.31945
1855.39644	0.32018
1853.46775	0.31904
1851.53906	0.31800
1849.61038	0.31916
1847.68169	0.32159
1845.75300	0.32186
1843.82432	0.31968
1841.89563	0.31876
1839.96694	0.31920
1838.03826	0.31854
1836.10957	0.31819
1834.18088	0.31988
1832.25220	0.32160
1830.32351	0.32172
1828.39482	0.32170
1826.46614	0.32171
1824.53745	0.32062
1822.60876	0.32035
1820.68008	0.32166
1818.75139	0.32171
1816.82271	0.31974
1814.89402	0.31853
1812.96533	0.31973
1811.03665	0.32155
1809.10796	0.32228
1807.17927	0.32197
1805.25059	0.32105
1803.32190	0.32039
1801.39321	0.32027
1799.46453	0.32045
1797.53584	0.32115
1795.60715	0.32152
1793.67847	0.32062
1791.74978	0.31963
1789.82109	0.31931
1787.89241	0.31909
1785.96372	0.31952
1784.03503	0.32126
1782.10635	0.32255
1780.17766	0.32232
1778.24897	0.32193
1776.32029	0.32135
1774.39160	0.32005
1772.46292	0.31884
1770.53423	0.31880
1768.60554	0.32039
1766.67686	0.32186
1764.74817	0.32109
1762.81948	0.31923
1760.89080	0.31942
1758.96211	0.32101
1757.03342	0.32043
1755.10474	0.31901
1753.17605	0.31974
1751.24736	0.32038
1749.31868	0.31909
1747.38999	0.31776
1745.46130	0.31708
1743.53262	0.31718
1741.60393	0.31833
1739.67524	0.31926
1737.74656	0.31898
1735.81787	0.31822
1733.88918	0.31923
1731.96050	0.32181
1730.03181	0.32256
1728.10312	0.32064
1726.17444	0.31899
1724.24575	0.32015
1722.31707	0.32308
1720.38838	0.32484
1718.45969	0.32432
1716.53101	0.32298
1714.60232	0.32226
1712.67363	0.32185
1710.74495	0.32161
1708.81626	0.32201
1706.88757	0.32254
1704.95889	0.32238
1703.03020	0.32148
1701.10151	0.31995
1699.17283	0.31818
1697.24414	0.31764
1695.31545	0.31890
1693.38677	0.32040
1691.45808	0.32120
1689.52939	0.32168
1687.60071	0.32176
1685.67202	0.32138
1683.74333	0.32150
1681.81465	0.32290
1679.88596	0.32484
1677.95728	0.32560
1676.02859	0.32483
1674.09990	0.32379
1672.17122	0.32307
1670.24253	0.32308
1668.31384	0.32454
1666.38516	0.32701
1664.45647	0.32805
1662.52778	0.32591
1660.59910	0.32283
1658.67041	0.32088
1656.74172	0.32039
1654.81304	0.32143
1652.88435	0.32257
1650.95566	0.32392
1649.02698	0.32572
1647.09829	0.32619
1645.16960	0.32489
1643.24092	0.32325
1641.31223	0.32370
1639.38354	0.32626
1637.45486	0.32716
1635.52617	0.32433
1633.59749	0.32113
1631.66880	0.32005
1629.74011	0.31859
1627.81143	0.31716
1625.88274	0.31842
1623.95405	0.32096
1622.02537	0.32252
1620.09668	0.32298
1618.16799	0.32321
1616.23931	0.32270
1614.31062	0.32120
1612.38193	0.32046
1610.45325	0.32036
1608.52456	0.31959
1606.59587	0.31963
1604.66719	0.32145
1602.73850	0.32237
1600.80981	0.32144
1598.88113	0.32093
1596.95244	0.32122
1595.02375	0.32063
1593.09507	0.31850
1591.16638	0.31651
1589.23770	0.31695
1587.30901	0.31903
1585.38032	0.32001
1583.45164	0.31954
1581.52295	0.31891
1579.59426	0.31932
1577.66558	0.31998
1575.73689	0.31968
1573.80820	0.32005
1571.87952	0.32073
1569.95083	0.32025
1568.02214	0.32027
1566.09346	0.32169
1564.16477	0.32324
1562.23608	0.32316
1560.30740	0.32206
1558.37871	0.32172
1556.45002	0.32075
1554.52134	0.31937
1552.59265	0.31994
1550.66396	0.32075
1548.73528	0.31923
1546.80659	0.31750
1544.87791	0.31833
1542.94922	0.32062
1541.02053	0.32249
1539.09185	0.32307
1537.16316	0.32140
1535.23447	0.31814
1533.30579	0.31641
1531.37710	0.31778
1529.44841	0.31937
1527.51973	0.31818
1525.59104	0.31624
1523.66235	0.31687
1521.73367	0.31922
1519.80498	0.32080
1517.87629	0.32081
1515.94761	0.32006
1514.01892	0.31941
1512.09023	0.31822
1510.16155	0.31730
1508.23286	0.31856
1506.30417	0.32003
1504.37549	0.31946
1502.44680	0.31872
1500.51812	0.31959
1498.58943	0.32163
1496.66074	0.32339
1494.73206	0.32318
1492.80337	0.32146
1490.87468	0.32102
1488.94600	0.32240
1487.01731	0.32265
1485.08862	0.32023
1483.15994	0.31747
1481.23125	0.31652
1479.30256	0.31686
1477.37388	0.31800
1475.44519	0.31985
1473.51650	0.32170
1471.58782	0.32275
1469.65913	0.32255
1467.73044	0.32138
1465.80176	0.31970
1463.87307	0.31827
1461.94438	0.31752
1460.01570	0.31713
1458.08701	0.31764
1456.15833	0.31946
1454.22964	0.32189
1452.30095	0.32419
1450.37227	0.32508
1448.44358	0.32325
1446.51489	0.32040
1444.58621	0.31963
1442.65752	0.32111
1440.72883	0.32240
1438.80015	0.32160
1436.87146	0.32012
1434.94277	0.32132
1433.01409	0.32395
1431.08540	0.32352
1429.15671	0.32058
1427.22803	0.31871
1425.29934	0.31811
1423.37065	0.31862
1421.44197	0.32095
1419.51328	0.32303
1417.58459	0.32390
1415.65591	0.32564
1413.72722	0.32625
1411.79854	0.32307
1409.86985	0.31999
1407.94116	0.32025
1406.01248	0.32100
1404.08379	0.31930
1402.15510	0.31610
1400.22642	0.31447
1398.29773	0.31636
1396.36904	0.31929
1394.44036	0.31990
1392.51167	0.31932
1390.58298	0.31850
1388.65430	0.31723
1386.72561	0.31740
1384.79692	0.31930
1382.86824	0.32107
1380.93955	0.32147
1379.01086	0.31995
1377.08218	0.31765
1375.15349	0.31698
1373.22480	0.31804
1371.29612	0.31873
1369.36743	0.31838
1367.43875	0.31756
1365.51006	0.31637
1363.58137	0.31524
1361.65269	0.31523
1359.72400	0.31746
1357.79531	0.32116
1355.86663	0.32334
1353.93794	0.32207
1352.00925	0.31813
1350.08057	0.31489
1348.15188	0.31485
1346.22319	0.31692
1344.29451	0.31912
1342.36582	0.31938
1340.43713	0.31744
1338.50845	0.31558
1336.57976	0.31466
1334.65107	0.31537
1332.72239	0.31772
1330.79370	0.31911
1328.86501	0.31955
1326.93633	0.32087
1325.00764	0.32217
1323.07896	0.32230
1321.15027	0.32164
1319.22158	0.32004
1317.29290	0.31750
1315.36421	0.31578
1313.43552	0.31499
1311.50684	0.31446
1309.57815	0.31592
1307.64946	0.31830
1305.72078	0.31873
1303.79209	0.31831
1301.86340	0.31862
1299.93472	0.31826
1298.00603	0.31580
1296.07734	0.31313
1294.14866	0.31210
1292.21997	0.31244
1290.29128	0.31420
1288.36260	0.31626
1286.43391	0.31699
1284.50522	0.31691
1282.57654	0.31643
1280.64785	0.31558
1278.71917	0.31621
1276.79048	0.31901
1274.86179	0.32075
1272.93311	0.32010
1271.00442	0.31987
1269.07573	0.32033
1267.14705	0.31962
1265.21836	0.31863
1263.28967	0.31823
1261.36099	0.31803
1259.43230	0.31863
1257.50361	0.31892
1255.57493	0.31740
1253.64624	0.31633
1251.71755	0.31746
1249.78887	0.31919
1247.86018	0.32016
1245.93149	0.31955
1244.00281	0.31730
1242.07412	0.31660
1240.14543	0.31834
1238.21675	0.31806
1236.28806	0.31508
1234.35937	0.31382
1232.43069	0.31583
1230.50200	0.31953
1228.57332	0.32238
1226.64463	0.32228
1224.71594	0.31992
1222.78726	0.31776
1220.85857	0.31716
1218.92988	0.31723
1217.00120	0.31751
1215.07251	0.31819
1213.14382	0.31837
1211.21514	0.31773
1209.28645	0.31661
1207.35776	0.31550
1205.42908	0.31507
1203.50039	0.31573
1201.57170	0.31780
1199.64302	0.31943
1197.71433	0.31828
1195.78564	0.31712
1193.85696	0.31823
1191.92827	0.31786
1189.99958	0.31534
1188.07090	0.31372
1186.14221	0.31399
1184.21353	0.31621
1182.28484	0.31770
1180.35615	0.31739
1178.42747	0.31905
1176.49878	0.32088
1174.57009	0.31944
1172.64141	0.31850
1170.71272	0.31907
1168.78403	0.31947
1166.85535	0.32036
1164.92666	0.31954
1162.99797	0.31745
1161.06929	0.31721
1159.14060	0.31789
1157.21191	0.31894
1155.28323	0.32004
1153.35454	0.32058
1151.42585	0.32240
1149.49717	0.32368
1147.56848	0.32050
1145.63979	0.31612
1143.71111	0.31379
1141.78242	0.31223
1139.85374	0.31327
1137.92505	0.31750
1135.99636	0.32088
1134.06768	0.32130
1132.13899	0.31877
1130.21030	0.31491
1128.28162	0.31321
1126.35293	0.31422
1124.42424	0.31499
1122.49556	0.31563
1120.56687	0.31808
1118.63818	0.32004
1116.70950	0.32053
1114.78081	0.32241
1112.85212	0.32391
1110.92344	0.32201
1108.99475	0.32052
1107.06606	0.32170
1105.13738	0.32130
1103.20869	0.31791
1101.28000	0.31538
1099.35132	0.31585
1097.42263	0.31756
1095.49395	0.31865
1093.56526	0.31884
1091.63657	0.31733
1089.70789	0.31555
1087.77920	0.31673
1085.85051	0.31794
1083.92183	0.31550
1081.99314	0.31306
1080.06445	0.31375
1078.13577	0.31456
1076.20708	0.31300
1074.27839	0.31184
1072.34971	0.31338
1070.42102	0.31488
1068.49233	0.31357
1066.56365	0.31235
1064.63496	0.31450
1062.70627	0.31760
1060.77759	0.31834
1058.84890	0.31868
1056.92021	0.32202
1054.99153	0.32507
1053.06284	0.32326
1051.13416	0.31836
1049.20547	0.31467
1047.27678	0.31592
1045.34810	0.32008
1043.41941	0.32127
1041.49072	0.31954
1039.56204	0.31917
1037.63335	0.32030
1035.70466	0.31876
1033.77598	0.31442
1031.84729	0.31160
1029.91860	0.31307
1027.98992	0.31703
1026.06123	0.31823
1024.13254	0.31585
1022.20386	0.31456
1020.27517	0.31612
1018.34648	0.31789
1016.41780	0.31800
1014.48911	0.31722
1012.56042	0.31803
1010.63174	0.32169
1008.70305	0.32476
1006.77437	0.32348
1004.84568	0.31984
1002.91699	0.31741
1000.98831	0.31647
999.05962	0.31663
997.13093	0.31782
995.20225	0.31869
993.27356	0.31820
991.34487	0.31746
989.41619	0.31761
987.48750	0.31755
985.55881	0.31709
983.63013	0.31710
981.70144	0.31680
979.77275	0.31587
977.84407	0.31529
975.91538	0.31575
973.98669	0.31617
972.05801	0.31544
970.12932	0.31537
968.20063	0.31623
966.27195	0.31465
964.34326	0.31219
962.41458	0.31407
960.48589	0.31863
958.55720	0.31924
956.62852	0.31403
954.69983	0.30954
952.77114	0.31041
950.84246	0.31294
948.91377	0.31391
946.98508	0.31303
945.05640	0.31035
943.12771	0.30822
941.19902	0.30921
939.27034	0.31076
937.34165	0.31055
935.41296	0.31193
933.48428	0.31497
931.55559	0.31516
929.62690	0.31224
927.69822	0.31028
925.76953	0.31132
923.84084	0.31410
921.91216	0.31669
919.98347	0.31649
918.05479	0.31313
916.12610	0.30948
914.19741	0.30819
912.26873	0.31050
910.34004	0.31376
908.41135	0.31374
906.48267	0.31117
904.55398	0.30966
902.62529	0.30935
900.69661	0.30933
898.76792	0.30973
896.83923	0.30950
894.91055	0.30875
892.98186	0.30836
891.05317	0.30831
889.12449	0.30854
887.19580	0.30879
885.26711	0.30988
883.33843	0.31210
881.40974	0.31415
879.48105	0.31499
877.55237	0.31406
875.62368	0.31236
873.69500	0.31131
871.76631	0.30994
869.83762	0.30802
867.90894	0.30670
865.98025	0.30536
864.05156	0.30459
862.12288	0.30599
860.19419	0.30774
858.26550	0.30804
856.33682	0.30815
854.40813	0.30868
852.47944	0.30849
850.55076	0.30832
848.62207	0.30794
846.69338	0.30424
844.76470	0.29929
842.83601	0.29928
840.90732	0.30526
838.97864	0.31277
837.04995	0.31582
835.12126	0.31315
833.19258	0.31134
831.26389	0.31383
829.33521	0.31569
827.40652	0.31436
825.47783	0.31179
823.54915	0.30946
821.62046	0.30925
819.69177	0.31153
817.76309	0.31307
815.83440	0.31094
813.90571	0.30546
811.97703	0.29991
810.04834	0.29821
808.11965	0.29992
806.19097	0.30184
804.26228	0.30394
802.33359	0.30671
800.40491	0.30798
798.47622	0.30611
796.54753	0.30364
794.61885	0.30340
792.69016	0.30249
790.76147	0.29829
788.83279	0.29405
786.90410	0.29459
784.97542	0.29895
783.04673	0.29973
781.11804	0.29629
779.18936	0.29525
777.26067	0.29787
775.33198	0.30057
773.40330	0.29927
771.47461	0.29213
769.54592	0.28370
767.61724	0.28167
765.68855	0.28705
763.75986	0.29212
761.83118	0.29101
759.90249	0.28714
757.97380	0.28521
756.04512	0.28449
754.11643	0.28568
752.18774	0.28815
750.25906	0.28731
748.33037	0.28528
746.40168	0.28693
744.47300	0.29109
742.54431	0.29221
740.61562	0.28732
738.68694	0.28313
736.75825	0.28434
734.82957	0.28611
732.90088	0.28319
730.97219	0.27542
729.04351	0.26961
727.11482	0.26911
725.18613	0.27098
723.25745	0.27387
721.32876	0.27360
719.40007	0.27205
717.47139	0.27590
715.54270	0.27947
713.61401	0.27868
711.68533	0.27648
709.75664	0.27195
707.82795	0.26813
705.89927	0.26833
703.97058	0.26884
702.04189	0.26788
700.11321	0.26588
698.18452	0.26314
696.25583	0.26282
694.32715	0.26781
692.39846	0.27604
690.46978	0.28125
688.54109	0.28186
686.61240	0.28160
684.68372	0.27918
682.75503	0.27261
680.82634	0.26465
678.89766	0.25786
676.96897	0.25474
675.04028	0.25719
673.11160	0.26522
671.18291	0.27523
669.25422	0.27778
667.32554	0.27144
665.39685	0.26757
663.46816	0.26953
661.53948	0.27243
659.61079	0.27244
657.68210	0.26971
655.75342	0.27078
653.82473	0.27485
651.89604	0.27581
649.96736	0.27359
648.03867	0.26926
646.10999	0.26779
644.18130	0.27233
642.25261	0.27644
640.32393	0.27730
638.39524	0.27717
636.46655	0.27308
634.53787	0.26876
632.60918	0.27201
630.68049	0.27581
628.75181	0.27535
626.82312	0.27333
624.89443	0.26618
622.96575	0.25871
621.03706	0.26222
619.10837	0.27024
617.17969	0.26902
615.25100	0.26762
613.32231	0.27898
611.39363	0.28737
609.46494	0.27587
607.53625	0.25619
605.60757	0.24920
603.67888	0.25591
601.75020	0.26214
599.82151	0.26192
597.89282	0.25465
595.96414	0.24259
594.03545	0.23465
592.10676	0.23880
590.17808	0.25006
588.24939	0.25183
586.32070	0.24217
584.39202	0.23525
582.46333	0.23882
580.53464	0.24724
578.60596	0.24927
576.67727	0.24288
574.74858	0.23556
572.81990	0.23785
570.89121	0.25137
568.96252	0.27002
567.03384	0.28489
565.10515	0.27310
563.17646	0.23459
561.24778	0.20095
559.31909	0.19396
557.39041	0.22041
555.46172	0.25834
553.53303	0.25448
551.60435	0.19525
549.67566	0.13613
547.74697	0.13936
545.81829	0.19827
543.88960	0.24002
541.96091	0.23858
540.03223	0.22750
538.10354	0.21307
536.17485	0.20512
534.24617	0.20178
532.31748	0.15487
530.38879	0.10181
528.46011	0.11754
526.53142	0.14403
524.60273	0.15252
522.67405	0.21269
520.74536	0.23255
518.81667	0.14586
516.88799	0.19451
514.95930	0.37581
513.03062	0.33551
511.10193	0.13690
509.17324	0.13779
507.24456	0.35011
505.31587	0.63250
503.38718	0.70821
501.45850	0.43829
499.52981	0.01064
497.60112	2.15498
495.67244	4.01102
493.74375	2.61923
491.81506	0.62988
489.88638	0.07426
487.95769	0.16562
486.02900	0.19662
484.10032	0.20997
482.17163	0.32142
480.24294	0.40523
478.31426	0.29847
476.38557	0.15698
474.45688	0.15579
472.52820	0.15579
470.59951	0.92978
468.67083	0.92978
466.74214	-0.81449
464.81345	-0.21447
462.88477	-0.17994
460.95608	0.93243
459.02739	2.19872
457.09871	1.03240
455.17002	0.11612
453.24133	0.27474
451.31265	0.60527
449.38396	0.75691
447.45527	0.78039
445.52659	1.09757
443.59790	0.49009
441.66921	0.64799
439.74053	0.64799
437.81184	0.32843
435.88315	3.03596
433.95447	10.96824
432.02578	3.33306
430.09709	1.11170
428.16841	0.77638
426.23972	0.69906
424.31104	0.58046
422.38235	0.28093
420.45366	0.28093
418.52498	-2.04415
416.59629	-0.56605
414.66760	0.18842
412.73892	1.40405
410.81023	1.36005
408.88154	0.81352
406.95286	0.58571
405.02417	0.52620
403.09548	1.27029
401.16680	-4.14114
399.23811	-4.14114
