4000.04268	0.81864
3998.11402	0.81861
3996.18536	0.81865
3994.25670	0.81870
3992.32804	0.81864
3990.39938	0.81850
3988.47072	0.81847
3986.54206	0.81861
3984.61340	0.81871
3982.68474	0.81865
3980.75607	0.81854
3978.82741	0.81853
3976.89875	0.81862
3974.97009	0.81862
3973.04143	0.81853
3971.11277	0.81851
3969.18411	0.81851
3967.25545	0.81839
3965.32679	0.81826
3963.39813	0.81823
3961.46947	0.81825
3959.54080	0.81821
3957.61214	0.81816
3955.68348	0.81821
3953.75482	0.81837
3951.82616	0.81852
3949.89750	0.81855
3947.96884	0.81844
3946.04018	0.81844
3944.11152	0.81850
3942.18286	0.81831
3940.25420	0.81801
3938.32553	0.81797
3936.39687	0.81822
3934.46821	0.81864
3932.53955	0.81888
3930.61089	0.81869
3928.68223	0.81845
3926.75357	0.81850
3924.82491	0.81853
3922.89625	0.81835
3920.96759	0.81830
3919.03893	0.81837
3917.11026	0.81823
3915.18160	0.81788
3913.25294	0.81762
3911.32428	0.81761
3909.39562	0.81786
3907.46696	0.81833
3905.53830	0.81876
3903.60964	0.81884
3901.68098	0.81864
3899.75232	0.81830
3897.82366	0.81793
3895.89500	0.81786
3893.96633	0.81815
3892.03767	0.81822
3890.10901	0.81788
3888.18035	0.81788
3886.25169	0.81829
3884.32303	0.81851
3882.39437	0.81846
3880.46571	0.81813
3878.53705	0.81772
3876.60839	0.81781
3874.67973	0.81827
3872.75106	0.81851
3870.82240	0.81832
3868.89374	0.81795
3866.96508	0.81795
3865.03642	0.81823
3863.10776	0.81813
3861.17910	0.81778
3859.25044	0.81774
3857.32178	0.81776
3855.39312	0.81729
3853.46446	0.81701
3851.53579	0.81735
3849.60713	0.81743
3847.67847	0.81753
3845.74981	0.81792
3843.82115	0.81830
3841.89249	0.81853
3839.96383	0.81857
3838.03517	0.81846
3836.10651	0.81833
3834.17785	0.81802
3832.24919	0.81750
3830.32052	0.81716
3828.39186	0.81717
3826.46320	0.81727
3824.53454	0.81744
3822.60588	0.81795
3820.67722	0.81828
3818.74856	0.81791
3816.81990	0.81717
3814.89124	0.81644
3812.96258	0.81608
3811.03392	0.81612
3809.10526	0.81638
3807.17659	0.81663
3805.24793	0.81690
3803.31927	0.81718
3801.39061	0.81713
3799.46195	0.81697
3797.53329	0.81680
3795.60463	0.81635
3793.67597	0.81592
3791.74731	0.81576
3789.81865	0.81574
3787.88999	0.81582
3785.96132	0.81594
3784.03266	0.81602
3782.10400	0.81641
3780.17534	0.81687
3778.24668	0.81647
3776.31802	0.81569
3774.38936	0.81548
3772.46070	0.81579
3770.53204	0.81609
3768.60338	0.81613
3766.67472	0.81602
3764.74605	0.81582
3762.81739	0.81582
3760.88873	0.81625
3758.96007	0.81658
3757.03141	0.81649
3755.10275	0.81635
3753.17409	0.81628
3751.24543	0.81612
3749.31677	0.81600
3747.38811	0.81571
3745.45945	0.81503
3743.53078	0.81530
3741.60212	0.81669
3739.67346	0.81796
3737.74480	0.81873
3735.81614	0.81873
3733.88748	0.81783
3731.95882	0.81669
3730.03016	0.81614
3728.10150	0.81618
3726.17284	0.81642
3724.24418	0.81655
3722.31552	0.81636
3720.38685	0.81591
3718.45819	0.81549
3716.52953	0.81530
3714.60087	0.81543
3712.67221	0.81582
3710.74355	0.81596
3708.81489	0.81556
3706.88623	0.81513
3704.95757	0.81508
3703.02891	0.81520
3701.10025	0.81507
3699.17158	0.81491
3697.24292	0.81505
3695.31426	0.81533
3693.38560	0.81588
3691.45694	0.81696
3689.52828	0.81753
3687.59962	0.81654
3685.67096	0.81526
3683.74230	0.81460
3681.81364	0.81450
3679.88498	0.81477
3677.95631	0.81507
3676.02765	0.81513
3674.09899	0.81492
3672.17033	0.81459
3670.24167	0.81421
3668.31301	0.81378
3666.38435	0.81338
3664.45569	0.81328
3662.52703	0.81375
3660.59837	0.81437
3658.66971	0.81435
3656.74104	0.81360
3654.81238	0.81324
3652.88372	0.81395
3650.95506	0.81482
3649.02640	0.81420
3647.09774	0.81264
3645.16908	0.81148
3643.24042	0.81073
3641.31176	0.81020
3639.38310	0.80971
3637.45444	0.80933
3635.52578	0.80909
3633.59711	0.80880
3631.66845	0.80825
3629.73979	0.80738
3627.81113	0.80669
3625.88247	0.80643
3623.95381	0.80637
3622.02515	0.80638
3620.09649	0.80597
3618.16783	0.80520
3616.23917	0.80470
3614.31051	0.80415
3612.38184	0.80321
3610.45318	0.80244
3608.52452	0.80228
3606.59586	0.80243
3604.66720	0.80259
3602.73854	0.80285
3600.80988	0.80310
3598.88122	0.80285
3596.95256	0.80227
3595.02390	0.80200
3593.09524	0.80205
3591.16657	0.80219
3589.23791	0.80286
3587.30925	0.80407
3585.38059	0.80454
3583.45193	0.80407
3581.52327	0.80344
3579.59461	0.80300
3577.66595	0.80287
3575.73729	0.80304
3573.80863	0.80351
3571.87997	0.80437
3569.95130	0.80536
3568.02264	0.80594
3566.09398	0.80599
3564.16532	0.80605
3562.23666	0.80624
3560.30800	0.80616
3558.37934	0.80579
3556.45068	0.80565
3554.52202	0.80597
3552.59336	0.80641
3550.66470	0.80662
3548.73604	0.80722
3546.80737	0.80843
3544.87871	0.80883
3542.95005	0.80776
3541.02139	0.80640
3539.09273	0.80594
3537.16407	0.80605
3535.23541	0.80552
3533.30675	0.80460
3531.37809	0.80418
3529.44943	0.80420
3527.52077	0.80450
3525.59210	0.80507
3523.66344	0.80504
3521.73478	0.80400
3519.80612	0.80304
3517.87746	0.80287
3515.94880	0.80323
3514.02014	0.80351
3512.09148	0.80320
3510.16282	0.80265
3508.23416	0.80249
3506.30550	0.80322
3504.37683	0.80465
3502.44817	0.80534
3500.51951	0.80499
3498.59085	0.80483
3496.66219	0.80486
3494.73353	0.80456
3492.80487	0.80421
3490.87621	0.80427
3488.94755	0.80478
3487.01889	0.80510
3485.09023	0.80494
3483.16156	0.80521
3481.23290	0.80613
3479.30424	0.80640
3477.37558	0.80576
3475.44692	0.80532
3473.51826	0.80571
3471.58960	0.80714
3469.66094	0.80882
3467.73228	0.80911
3465.80362	0.80791
3463.87496	0.80687
3461.94630	0.80683
3460.01763	0.80685
3458.08897	0.80628
3456.16031	0.80578
3454.23165	0.80571
3452.30299	0.80577
3450.37433	0.80602
3448.44567	0.80642
3446.51701	0.80653
3444.58835	0.80629
3442.65969	0.80622
3440.73103	0.80683
3438.80236	0.80829
3436.87370	0.80968
3434.94504	0.80982
3433.01638	0.80922
3431.08772	0.80888
3429.15906	0.80848
3427.23040	0.80754
3425.30174	0.80671
3423.37308	0.80658
3421.44442	0.80678
3419.51576	0.80666
3417.58709	0.80647
3415.65843	0.80699
3413.72977	0.80786
3411.80111	0.80825
3409.87245	0.80807
3407.94379	0.80752
3406.01513	0.80731
3404.08647	0.80858
3402.15781	0.81064
3400.22915	0.81102
3398.30049	0.80940
3396.37182	0.80823
3394.44316	0.80891
3392.51450	0.80991
3390.58584	0.80920
3388.65718	0.80737
3386.72852	0.80622
3384.79986	0.80602
3382.87120	0.80634
3380.94254	0.80679
3379.01388	0.80699
3377.08522	0.80688
3375.15656	0.80672
3373.22789	0.80737
3371.29923	0.80922
3369.37057	0.81072
3367.44191	0.81029
3365.51325	0.80850
3363.58459	0.80718
3361.65593	0.80694
3359.72727	0.80674
3357.79861	0.80614
3355.86995	0.80590
3353.94129	0.80675
3352.01262	0.80811
3350.08396	0.80821
3348.15530	0.80696
3346.22664	0.80628
3344.29798	0.80668
3342.36932	0.80732
3340.44066	0.80799
3338.51200	0.80815
3336.58334	0.80710
3334.65468	0.80570
3332.72602	0.80499
3330.79735	0.80494
3328.86869	0.80554
3326.94003	0.80650
3325.01137	0.80666
3323.08271	0.80575
3321.15405	0.80485
3319.22539	0.80445
3317.29673	0.80432
3315.36807	0.80435
3313.43941	0.80475
3311.51075	0.80606
3309.58208	0.80815
3307.65342	0.80985
3305.72476	0.80974
3303.79610	0.80766
3301.86744	0.80535
3299.93878	0.80461
3298.01012	0.80546
3296.08146	0.80660
3294.15280	0.80714
3292.22414	0.80669
3290.29548	0.80522
3288.36682	0.80371
3286.43815	0.80300
3284.50949	0.80277
3282.58083	0.80266
3280.65217	0.80265
3278.72351	0.80293
3276.79485	0.80369
3274.86619	0.80479
3272.93753	0.80599
3271.00887	0.80631
3269.08021	0.80484
3267.15155	0.80288
3265.22288	0.80194
3263.29422	0.80180
3261.36556	0.80190
3259.43690	0.80229
3257.50824	0.80308
3255.57958	0.80341
3253.65092	0.80280
3251.72226	0.80244
3249.79360	0.80335
3247.86494	0.80456
3245.93628	0.80450
3244.00761	0.80352
3242.07895	0.80293
3240.15029	0.80285
3238.22163	0.80325
3236.29297	0.80470
3234.36431	0.80632
3232.43565	0.80621
3230.50699	0.80473
3228.57833	0.80365
3226.64967	0.80338
3224.72101	0.80346
3222.79234	0.80374
3220.86368	0.80421
3218.93502	0.80458
3217.00636	0.80467
3215.07770	0.80469
3213.14904	0.80468
3211.22038	0.80469
3209.29172	0.80492
3207.36306	0.80518
3205.43440	0.80526
3203.50574	0.80530
3201.57708	0.80540
3199.64841	0.80551
3197.71975	0.80565
3195.79109	0.80586
3193.86243	0.80614
3191.93377	0.80647
3190.00511	0.80675
3188.07645	0.80685
3186.14779	0.80688
3184.21913	0.80703
3182.29047	0.80725
3180.36181	0.80749
3178.43314	0.80773
3176.50448	0.80791
3174.57582	0.80804
3172.64716	0.80815
3170.71850	0.80831
3168.78984	0.80847
3166.86118	0.80860
3164.93252	0.80878
3163.00386	0.80908
3161.07520	0.80943
3159.14654	0.80978
3157.21787	0.81045
3155.28921	0.81179
3153.36055	0.81305
3151.43189	0.81287
3149.50323	0.81162
3147.57457	0.81080
3145.64591	0.81073
3143.71725	0.81123
3141.78859	0.81241
3139.85993	0.81345
3137.93127	0.81329
3136.00260	0.81245
3134.07394	0.81216
3132.14528	0.81262
3130.21662	0.81309
3128.28796	0.81307
3126.35930	0.81300
3124.43064	0.81372
3122.50198	0.81550
3120.57332	0.81753
3118.64466	0.81868
3116.71600	0.81859
3114.78734	0.81740
3112.85867	0.81619
3110.93001	0.81624
3109.00135	0.81670
3107.07269	0.81629
3105.14403	0.81570
3103.21537	0.81599
3101.28671	0.81676
3099.35805	0.81696
3097.42939	0.81652
3095.50073	0.81623
3093.57207	0.81674
3091.64340	0.81773
3089.71474	0.81835
3087.78608	0.81868
3085.85742	0.81932
3083.92876	0.82001
3082.00010	0.82058
3080.07144	0.82100
3078.14278	0.82060
3076.21412	0.81934
3074.28546	0.81822
3072.35680	0.81799
3070.42813	0.81865
3068.49947	0.81958
3066.57081	0.81978
3064.64215	0.81911
3062.71349	0.81839
3060.78483	0.81815
3058.85617	0.81846
3056.92751	0.81894
3054.99885	0.81919
3053.07019	0.81941
3051.14153	0.81953
3049.21286	0.81936
3047.28420	0.81952
3045.35554	0.82027
3043.42688	0.82086
3041.49822	0.82057
3039.56956	0.81968
3037.64090	0.81935
3035.71224	0.81989
3033.78358	0.82012
3031.85492	0.81955
3029.92626	0.81884
3027.99760	0.81854
3026.06893	0.81872
3024.14027	0.81882
3022.21161	0.81877
3020.28295	0.81909
3018.35429	0.81979
3016.42563	0.82068
3014.49697	0.82142
3012.56831	0.82138
3010.63965	0.82029
3008.71099	0.81891
3006.78233	0.81814
3004.85366	0.81799
3002.92500	0.81800
3000.99634	0.81829
2999.06768	0.81889
2997.13902	0.81921
2995.21036	0.81939
2993.28170	0.81970
2991.35304	0.81940
2989.42438	0.81853
2987.49572	0.81803
2985.56706	0.81824
2983.63839	0.81902
2981.70973	0.81989
2979.78107	0.82007
2977.85241	0.81971
2975.92375	0.81947
2973.99509	0.81920
2972.06643	0.81857
2970.13777	0.81796
2968.20911	0.81765
2966.28045	0.81765
2964.35179	0.81782
2962.42313	0.81778
2960.49446	0.81742
2958.56580	0.81708
2956.63714	0.81720
2954.70848	0.81786
2952.77982	0.81841
2950.85116	0.81848
2948.92250	0.81879
2946.99384	0.81943
2945.06518	0.81952
2943.13652	0.81868
2941.20786	0.81749
2939.27919	0.81667
2937.35053	0.81625
2935.42187	0.81592
2933.49321	0.81588
2931.56455	0.81612
2929.63589	0.81584
2927.70723	0.81467
2925.77857	0.81339
2923.84991	0.81248
2921.92125	0.81199
2919.99259	0.81213
2918.06392	0.81288
2916.13526	0.81411
2914.20660	0.81532
2912.27794	0.81580
2910.34928	0.81563
2908.42062	0.81543
2906.49196	0.81557
2904.56330	0.81589
2902.63464	0.81605
2900.70598	0.81615
2898.77732	0.81662
2896.84865	0.81722
2894.91999	0.81729
2892.99133	0.81692
2891.06267	0.81672
2889.13401	0.81676
2887.20535	0.81683
2885.27669	0.81691
2883.34803	0.81701
2881.41937	0.81712
2879.49071	0.81724
2877.56205	0.81766
2875.63339	0.81858
2873.70472	0.81918
2871.77606	0.81864
2869.84740	0.81771
2867.91874	0.81731
2865.99008	0.81719
2864.06142	0.81708
2862.13276	0.81710
2860.20410	0.81697
2858.27544	0.81636
2856.34678	0.81548
2854.41812	0.81462
2852.48945	0.81391
2850.56079	0.81384
2848.63213	0.81447
2846.70347	0.81521
2844.77481	0.81580
2842.84615	0.81669
2840.91749	0.81803
2838.98883	0.81897
2837.06017	0.81895
2835.13151	0.81852
2833.20285	0.81816
2831.27418	0.81786
2829.34552	0.81769
2827.41686	0.81769
2825.48820	0.81775
2823.55954	0.81780
2821.63088	0.81783
2819.70222	0.81781
2817.77356	0.81776
2815.84490	0.81775
2813.91624	0.81791
2811.98758	0.81826
2810.05891	0.81845
2808.13025	0.81823
2806.20159	0.81794
2804.27293	0.81789
2802.34427	0.81812
2800.41561	0.81859
2798.48695	0.81890
2796.55829	0.81874
2794.62963	0.81848
2792.70097	0.81862
2790.77231	0.81894
2788.84365	0.81888
2786.91498	0.81840
2784.98632	0.81798
2783.05766	0.81781
2781.12900	0.81778
2779.20034	0.81792
2777.27168	0.81836
2775.34302	0.81876
2773.41436	0.81868
2771.48570	0.81838
2769.55704	0.81825
2767.62838	0.81818
2765.69971	0.81808
2763.77105	0.81799
2761.84239	0.81793
2759.91373	0.81789
2757.98507	0.81787
2756.05641	0.81786
2754.12775	0.81787
2752.19909	0.81804
2750.27043	0.81836
2748.34177	0.81851
2746.41311	0.81828
2744.48444	0.81792
2742.55578	0.81775
2740.62712	0.81778
2738.69846	0.81787
2736.76980	0.81785
2734.84114	0.81770
2732.91248	0.81759
2730.98382	0.81761
2729.05516	0.81791
2727.12650	0.81828
2725.19784	0.81836
2723.26917	0.81817
2721.34051	0.81791
2719.41185	0.81769
2717.48319	0.81756
2715.55453	0.81751
2713.62587	0.81750
2711.69721	0.81751
2709.76855	0.81752
2707.83989	0.81753
2705.91123	0.81753
2703.98257	0.81748
2702.05391	0.81743
2700.12524	0.81744
2698.19658	0.81743
2696.26792	0.81738
2694.33926	0.81736
2692.41060	0.81734
2690.48194	0.81731
2688.55328	0.81730
2686.62462	0.81730
2684.69596	0.81738
2682.76730	0.81761
2680.83864	0.81786
2678.90997	0.81790
2676.98131	0.81778
2675.05265	0.81769
2673.12399	0.81760
2671.19533	0.81745
2669.26667	0.81732
2667.33801	0.81727
2665.40935	0.81725
2663.48069	0.81722
2661.55203	0.81721
2659.62337	0.81725
2657.69470	0.81728
2655.76604	0.81729
2653.83738	0.81725
2651.90872	0.81719
2649.98006	0.81718
2648.05140	0.81720
2646.12274	0.81718
2644.19408	0.81714
2642.26542	0.81717
2640.33676	0.81726
2638.40810	0.81732
2636.47943	0.81730
2634.55077	0.81724
2632.62211	0.81721
2630.69345	0.81722
2628.76479	0.81729
2626.83613	0.81734
2624.90747	0.81728
2622.97881	0.81717
2621.05015	0.81709
2619.12149	0.81706
2617.19283	0.81707
2615.26417	0.81709
2613.33550	0.81707
2611.40684	0.81703
2609.47818	0.81700
2607.54952	0.81701
2605.62086	0.81703
2603.69220	0.81705
2601.76354	0.81707
2599.83488	0.81707
2597.90622	0.81708
2595.97756	0.81712
2594.04890	0.81712
2592.12023	0.81708
2590.19157	0.81706
2588.26291	0.81704
2586.33425	0.81702
2584.40559	0.81700
2582.47693	0.81701
2580.54827	0.81701
2578.61961	0.81705
2576.69095	0.81710
2574.76229	0.81710
2572.83363	0.81706
2570.90496	0.81707
2568.97630	0.81711
2567.04764	0.81712
2565.11898	0.81710
2563.19032	0.81711
2561.26166	0.81715
2559.33300	0.81716
2557.40434	0.81713
2555.47568	0.81711
2553.54702	0.81708
2551.61836	0.81706
2549.68969	0.81708
2547.76103	0.81714
2545.83237	0.81719
2543.90371	0.81718
2541.97505	0.81718
2540.04639	0.81723
2538.11773	0.81728
2536.18907	0.81729
2534.26041	0.81729
2532.33175	0.81731
2530.40309	0.81733
2528.47443	0.81736
2526.54576	0.81738
2524.61710	0.81739
2522.68844	0.81737
2520.75978	0.81738
2518.83112	0.81742
2516.90246	0.81747
2514.97380	0.81747
2513.04514	0.81741
2511.11648	0.81731
2509.18782	0.81725
2507.25916	0.81724
2505.33049	0.81726
2503.40183	0.81731
2501.47317	0.81737
2499.54451	0.81742
2497.61585	0.81745
2495.68719	0.81742
2493.75853	0.81733
2491.82987	0.81730
2489.90121	0.81735
2487.97255	0.81739
2486.04389	0.81740
2484.11522	0.81740
2482.18656	0.81745
2480.25790	0.81749
2478.32924	0.81749
2476.40058	0.81746
2474.47192	0.81743
2472.54326	0.81738
2470.61460	0.81737
2468.68594	0.81744
2466.75728	0.81749
2464.82862	0.81749
2462.89995	0.81749
2460.97129	0.81753
2459.04263	0.81759
2457.11397	0.81763
2455.18531	0.81759
2453.25665	0.81751
2451.32799	0.81750
2449.39933	0.81755
2447.47067	0.81755
2445.54201	0.81754
2443.61335	0.81757
2441.68469	0.81760
2439.75602	0.81762
2437.82736	0.81762
2435.89870	0.81763
2433.97004	0.81763
2432.04138	0.81766
2430.11272	0.81769
2428.18406	0.81772
2426.25540	0.81773
2424.32674	0.81771
2422.39808	0.81765
2420.46942	0.81762
2418.54075	0.81763
2416.61209	0.81765
2414.68343	0.81769
2412.75477	0.81776
2410.82611	0.81782
2408.89745	0.81782
2406.96879	0.81781
2405.04013	0.81784
2403.11147	0.81791
2401.18281	0.81792
2399.25415	0.81789
2397.32548	0.81786
2395.39682	0.81785
2393.46816	0.81787
2391.53950	0.81791
2389.61084	0.81795
2387.68218	0.81804
2385.75352	0.81828
2383.82486	0.81870
2381.89620	0.81924
2379.96754	0.81984
2378.03888	0.82041
2376.11021	0.82087
2374.18155	0.82112
2372.25289	0.82119
2370.32423	0.82126
2368.39557	0.82138
2366.46691	0.82149
2364.53825	0.82149
2362.60959	0.82138
2360.68093	0.82145
2358.75227	0.82182
2356.82361	0.82227
2354.89495	0.82271
2352.96628	0.82307
2351.03762	0.82317
2349.10896	0.82312
2347.18030	0.82318
2345.25164	0.82327
2343.32298	0.82319
2341.39432	0.82297
2339.46566	0.82280
2337.53700	0.82273
2335.60834	0.82270
2333.67968	0.82264
2331.75101	0.82259
2329.82235	0.82259
2327.89369	0.82252
2325.96503	0.82231
2324.03637	0.82206
2322.10771	0.82182
2320.17905	0.82152
2318.25039	0.82116
2316.32173	0.82095
2314.39307	0.82097
2312.46441	0.82101
2310.53574	0.82088
2308.60708	0.82059
2306.67842	0.82027
2304.74976	0.82005
2302.82110	0.81989
2300.89244	0.81970
2298.96378	0.81948
2297.03512	0.81928
2295.10646	0.81915
2293.17780	0.81904
2291.24914	0.81892
2289.32047	0.81879
2287.39181	0.81866
2285.46315	0.81853
2283.53449	0.81844
2281.60583	0.81844
2279.67717	0.81849
2277.74851	0.81855
2275.81985	0.81859
2273.89119	0.81862
2271.96253	0.81865
2270.03387	0.81865
2268.10521	0.81864
2266.17654	0.81864
2264.24788	0.81867
2262.31922	0.81871
2260.39056	0.81872
2258.46190	0.81864
2256.53324	0.81853
2254.60458	0.81846
2252.67592	0.81842
2250.74726	0.81840
2248.81860	0.81840
2246.88994	0.81843
2244.96127	0.81845
2243.03261	0.81843
2241.10395	0.81840
2239.17529	0.81840
2237.24663	0.81844
2235.31797	0.81846
2233.38931	0.81841
2231.46065	0.81834
2229.53199	0.81831
2227.60333	0.81832
2225.67467	0.81830
2223.74600	0.81821
2221.81734	0.81813
2219.88868	0.81811
2217.96002	0.81812
2216.03136	0.81809
2214.10270	0.81800
2212.17404	0.81796
2210.24538	0.81795
2208.31672	0.81789
2206.38806	0.81780
2204.45940	0.81774
2202.53073	0.81771
2200.60207	0.81771
2198.67341	0.81774
2196.74475	0.81779
2194.81609	0.81786
2192.88743	0.81788
2190.95877	0.81783
2189.03011	0.81777
2187.10145	0.81776
2185.17279	0.81777
2183.24413	0.81778
2181.31547	0.81775
2179.38680	0.81771
2177.45814	0.81769
2175.52948	0.81772
2173.60082	0.81776
2171.67216	0.81776
2169.74350	0.81776
2167.81484	0.81780
2165.88618	0.81786
2163.95752	0.81786
2162.02886	0.81782
2160.10020	0.81780
2158.17153	0.81779
2156.24287	0.81782
2154.31421	0.81784
2152.38555	0.81785
2150.45689	0.81785
2148.52823	0.81786
2146.59957	0.81788
2144.67091	0.81789
2142.74225	0.81790
2140.81359	0.81796
2138.88493	0.81803
2136.95626	0.81805
2135.02760	0.81803
2133.09894	0.81802
2131.17028	0.81801
2129.24162	0.81800
2127.31296	0.81798
2125.38430	0.81798
2123.45564	0.81801
2121.52698	0.81806
2119.59832	0.81809
2117.66966	0.81808
2115.74099	0.81807
2113.81233	0.81808
2111.88367	0.81810
2109.95501	0.81812
2108.02635	0.81815
2106.09769	0.81816
2104.16903	0.81816
2102.24037	0.81820
2100.31171	0.81825
2098.38305	0.81822
2096.45439	0.81814
2094.52573	0.81811
2092.59706	0.81815
2090.66840	0.81818
2088.73974	0.81820
2086.81108	0.81820
2084.88242	0.81817
2082.95376	0.81816
2081.02510	0.81818
2079.09644	0.81821
2077.16778	0.81823
2075.23912	0.81822
2073.31046	0.81817
2071.38179	0.81816
2069.45313	0.81820
2067.52447	0.81825
2065.59581	0.81827
2063.66715	0.81826
2061.73849	0.81824
2059.80983	0.81823
2057.88117	0.81821
2055.95251	0.81820
2054.02385	0.81822
2052.09519	0.81822
2050.16652	0.81821
2048.23786	0.81822
2046.30920	0.81823
2044.38054	0.81825
2042.45188	0.81829
2040.52322	0.81828
2038.59456	0.81821
2036.66590	0.81817
2034.73724	0.81820
2032.80858	0.81822
2030.87992	0.81821
2028.95125	0.81821
2027.02259	0.81824
2025.09393	0.81824
2023.16527	0.81822
2021.23661	0.81826
2019.30795	0.81837
2017.37929	0.81840
2015.45063	0.81830
2013.52197	0.81820
2011.59331	0.81817
2009.66465	0.81818
2007.73599	0.81815
2005.80732	0.81810
2003.87866	0.81807
2001.95000	0.81810
2000.02134	0.81816
1998.09268	0.81822
1996.16402	0.81832
1994.23536	0.81854
1992.30670	0.81869
1990.37804	0.81859
1988.44938	0.81838
1986.52072	0.81824
1984.59205	0.81816
1982.66339	0.81812
1980.73473	0.81812
1978.80607	0.81814
1976.87741	0.81815
1974.94875	0.81813
1973.02009	0.81812
1971.09143	0.81822
1969.16277	0.81847
1967.23411	0.81859
1965.30545	0.81843
1963.37678	0.81827
1961.44812	0.81827
1959.51946	0.81828
1957.59080	0.81826
1955.66214	0.81825
1953.73348	0.81823
1951.80482	0.81821
1949.87616	0.81825
1947.94750	0.81839
1946.01884	0.81869
1944.09018	0.81904
1942.16151	0.81904
1940.23285	0.81862
1938.30419	0.81830
1936.37553	0.81826
1934.44687	0.81830
1932.51821	0.81824
1930.58955	0.81814
1928.66089	0.81811
1926.73223	0.81831
1924.80357	0.81875
1922.87491	0.81903
1920.94625	0.81902
1919.01758	0.81904
1917.08892	0.81891
1915.16026	0.81856
1913.23160	0.81842
1911.30294	0.81860
1909.37428	0.81873
1907.44562	0.81861
1905.51696	0.81841
1903.58830	0.81833
1901.65964	0.81831
1899.73098	0.81834
1897.80231	0.81849
1895.87365	0.81864
1893.94499	0.81865
1892.01633	0.81876
1890.08767	0.81898
1888.15901	0.81884
1886.23035	0.81851
1884.30169	0.81837
1882.37303	0.81834
1880.44437	0.81833
1878.51571	0.81830
1876.58704	0.81828
1874.65838	0.81832
1872.72972	0.81871
1870.80106	0.81964
1868.87240	0.82035
1866.94374	0.81990
1865.01508	0.81898
1863.08642	0.81848
1861.15776	0.81838
1859.22910	0.81836
1857.30044	0.81828
1855.37177	0.81819
1853.44311	0.81816
1851.51445	0.81828
1849.58579	0.81866
1847.65713	0.81930
1845.72847	0.82000
1843.79981	0.82003
1841.87115	0.81927
1839.94249	0.81870
1838.01383	0.81858
1836.08517	0.81854
1834.15651	0.81869
1832.22784	0.81951
1830.29918	0.82039
1828.37052	0.82033
1826.44186	0.81986
1824.51320	0.81940
1822.58454	0.81879
1820.65588	0.81843
1818.72722	0.81844
1816.79856	0.81851
1814.86990	0.81865
1812.94124	0.81907
1811.01257	0.81942
1809.08391	0.81924
1807.15525	0.81886
1805.22659	0.81881
1803.29793	0.81925
1801.36927	0.81982
1799.44061	0.81997
1797.51195	0.81989
1795.58329	0.82021
1793.65463	0.82093
1791.72597	0.82092
1789.79730	0.81989
1787.86864	0.81919
1785.93998	0.81919
1784.01132	0.81941
1782.08266	0.81966
1780.15400	0.81977
1778.22534	0.81974
1776.29668	0.82019
1774.36802	0.82137
1772.43936	0.82231
1770.51070	0.82181
1768.58203	0.82061
1766.65337	0.81975
1764.72471	0.81968
1762.79605	0.82016
1760.86739	0.82031
1758.93873	0.82015
1757.01007	0.82003
1755.08141	0.81990
1753.15275	0.82038
1751.22409	0.82160
1749.29543	0.82224
1747.36677	0.82171
1745.43810	0.82109
1743.50944	0.82091
1741.58078	0.82097
1739.65212	0.82090
1737.72346	0.82095
1735.79480	0.82183
1733.86614	0.82268
1731.93748	0.82203
1730.00882	0.82085
1728.08016	0.81985
1726.15150	0.81944
1724.22283	0.81963
1722.29417	0.82013
1720.36551	0.82146
1718.43685	0.82365
1716.50819	0.82436
1714.57953	0.82280
1712.65087	0.82115
1710.72221	0.82048
1708.79355	0.82101
1706.86489	0.82221
1704.93623	0.82292
1703.00756	0.82343
1701.07890	0.82468
1699.15024	0.82543
1697.22158	0.82464
1695.29292	0.82279
1693.36426	0.82111
1691.43560	0.82072
1689.50694	0.82122
1687.57828	0.82232
1685.64962	0.82436
1683.72096	0.82512
1681.79229	0.82318
1679.86363	0.82154
1677.93497	0.82126
1676.00631	0.82183
1674.07765	0.82222
1672.14899	0.82266
1670.22033	0.82305
1668.29167	0.82192
1666.36301	0.82056
1664.43435	0.82053
1662.50569	0.82072
1660.57703	0.82002
1658.64836	0.81965
1656.71970	0.82082
1654.79104	0.82361
1652.86238	0.82491
1650.93372	0.82351
1649.00506	0.82352
1647.07640	0.82384
1645.14774	0.82200
1643.21908	0.82007
1641.29042	0.81968
1639.36176	0.82078
1637.43309	0.82278
1635.50443	0.82309
1633.57577	0.82087
1631.64711	0.81943
1629.71845	0.81953
1627.78979	0.82016
1625.86113	0.82073
1623.93247	0.82113
1622.00381	0.82068
1620.07515	0.82037
1618.14649	0.82123
1616.21782	0.82152
1614.28916	0.82028
1612.36050	0.81946
1610.43184	0.81947
1608.50318	0.81941
1606.57452	0.81883
1604.64586	0.81813
1602.71720	0.81743
1600.78854	0.81651
1598.85988	0.81550
1596.93122	0.81447
1595.00255	0.81301
1593.07389	0.81071
1591.14523	0.80769
1589.21657	0.80426
1587.28791	0.80089
1585.35925	0.79814
1583.43059	0.79649
1581.50193	0.79626
1579.57327	0.79778
1577.64461	0.80110
1575.71595	0.80453
1573.78729	0.80640
1571.85862	0.80875
1569.92996	0.81207
1568.00130	0.81407
1566.07264	0.81496
1564.14398	0.81611
1562.21532	0.81830
1560.28666	0.82267
1558.35800	0.82529
1556.42934	0.82262
1554.50068	0.82018
1552.57202	0.81906
1550.64335	0.81863
1548.71469	0.81840
1546.78603	0.81891
1544.85737	0.82077
1542.92871	0.82346
1541.00005	0.82522
1539.07139	0.82315
1537.14273	0.82054
1535.21407	0.82038
1533.28541	0.82097
1531.35675	0.82053
1529.42808	0.82058
1527.49942	0.82181
1525.57076	0.82323
1523.64210	0.82479
1521.71344	0.82611
1519.78478	0.82615
1517.85612	0.82574
1515.92746	0.82474
1513.99880	0.82343
1512.07014	0.82349
1510.14148	0.82566
1508.21281	0.82887
1506.28415	0.82812
1504.35549	0.82391
1502.42683	0.82180
1500.49817	0.82191
1498.56951	0.82280
1496.64085	0.82258
1494.71219	0.82141
1492.78353	0.82138
1490.85487	0.82277
1488.92621	0.82332
1486.99755	0.82186
1485.06888	0.82035
1483.14022	0.81985
1481.21156	0.81995
1479.28290	0.82033
1477.35424	0.82140
1475.42558	0.82301
1473.49692	0.82382
1471.56826	0.82231
1469.63960	0.82022
1467.71094	0.81970
1465.78228	0.82029
1463.85361	0.82032
1461.92495	0.82037
1459.99629	0.82215
1458.06763	0.82470
1456.13897	0.82400
1454.21031	0.82140
1452.28165	0.82001
1450.35299	0.81983
1448.42433	0.81999
1446.49567	0.81950
1444.56701	0.81866
1442.63834	0.81819
1440.70968	0.81838
1438.78102	0.81939
1436.85236	0.82034
1434.92370	0.81988
1432.99504	0.81925
1431.06638	0.81925
1429.13772	0.81906
1427.20906	0.81875
1425.28040	0.81896
1423.35174	0.81938
1421.42307	0.82011
1419.49441	0.82107
1417.56575	0.82058
1415.63709	0.81912
1413.70843	0.81833
1411.77977	0.81821
1409.85111	0.81822
1407.92245	0.81843
1405.99379	0.81881
1404.06513	0.81881
1402.13647	0.81878
1400.20781	0.81943
1398.27914	0.82021
1396.35048	0.82039
1394.42182	0.81974
1392.49316	0.81872
1390.56450	0.81842
1388.63584	0.81895
1386.70718	0.81922
1384.77852	0.81873
1382.84986	0.81823
1380.92120	0.81803
1378.99254	0.81808
1377.06387	0.81853
1375.13521	0.81903
1373.20655	0.81876
1371.27789	0.81806
1369.34923	0.81769
1367.42057	0.81761
1365.49191	0.81791
1363.56325	0.81850
1361.63459	0.81844
1359.70593	0.81766
1357.77727	0.81705
1355.84860	0.81684
1353.91994	0.81673
1351.99128	0.81661
1350.06262	0.81655
1348.13396	0.81655
1346.20530	0.81660
1344.27664	0.81680
1342.34798	0.81732
1340.41932	0.81796
1338.49066	0.81801
1336.56200	0.81742
1334.63333	0.81688
1332.70467	0.81668
1330.77601	0.81669
1328.84735	0.81672
1326.91869	0.81676
1324.99003	0.81683
1323.06137	0.81697
1321.13271	0.81718
1319.20405	0.81734
1317.27539	0.81729
1315.34673	0.81721
1313.41807	0.81720
1311.48940	0.81715
1309.56074	0.81707
1307.63208	0.81705
1305.70342	0.81706
1303.77476	0.81709
1301.84610	0.81716
1299.91744	0.81722
1297.98878	0.81724
1296.06012	0.81720
1294.13146	0.81714
1292.20280	0.81708
1290.27413	0.81706
1288.34547	0.81704
1286.41681	0.81692
1284.48815	0.81678
1282.55949	0.81667
1280.63083	0.81658
1278.70217	0.81653
1276.77351	0.81652
1274.84485	0.81652
1272.91619	0.81652
1270.98753	0.81648
1269.05886	0.81637
1267.13020	0.81622
1265.20154	0.81610
1263.27288	0.81608
1261.34422	0.81615
1259.41556	0.81620
1257.48690	0.81621
1255.55824	0.81616
1253.62958	0.81605
1251.70092	0.81594
1249.77226	0.81585
1247.84359	0.81577
1245.91493	0.81566
1243.98627	0.81548
1242.05761	0.81529
1240.12895	0.81513
1238.20029	0.81498
1236.27163	0.81482
1234.34297	0.81468
1232.41431	0.81456
1230.48565	0.81440
1228.55699	0.81416
1226.62833	0.81392
1224.69966	0.81373
1222.77100	0.81356
1220.84234	0.81336
1218.91368	0.81311
1216.98502	0.81287
1215.05636	0.81264
1213.12770	0.81240
1211.19904	0.81213
1209.27038	0.81181
1207.34172	0.81149
1205.41306	0.81128
1203.48439	0.81113
1201.55573	0.81099
1199.62707	0.81080
1197.69841	0.81057
1195.76975	0.81034
1193.84109	0.81017
1191.91243	0.81007
1189.98377	0.81003
1188.05511	0.80995
1186.12645	0.80979
1184.19779	0.80961
1182.26912	0.80941
1180.34046	0.80912
1178.41180	0.80874
1176.48314	0.80835
1174.55448	0.80797
1172.62582	0.80762
1170.69716	0.80733
1168.76850	0.80714
1166.83984	0.80695
1164.91118	0.80677
1162.98252	0.80662
1161.05385	0.80650
1159.12519	0.80633
1157.19653	0.80616
1155.26787	0.80601
1153.33921	0.80585
1151.41055	0.80565
1149.48189	0.80545
1147.55323	0.80526
1145.62457	0.80509
1143.69591	0.80491
1141.76725	0.80473
1139.83859	0.80457
1137.90992	0.80444
1135.98126	0.80432
1134.05260	0.80419
1132.12394	0.80409
1130.19528	0.80398
1128.26662	0.80381
1126.33796	0.80364
1124.40930	0.80346
1122.48064	0.80324
1120.55198	0.80302
1118.62332	0.80280
1116.69465	0.80253
1114.76599	0.80225
1112.83733	0.80198
1110.90867	0.80170
1108.98001	0.80146
1107.05135	0.80127
1105.12269	0.80107
1103.19403	0.80084
1101.26537	0.80059
1099.33671	0.80030
1097.40805	0.80001
1095.47938	0.79972
1093.55072	0.79949
1091.62206	0.79938
1089.69340	0.79934
1087.76474	0.79923
1085.83608	0.79903
1083.90742	0.79885
1081.97876	0.79872
1080.05010	0.79865
1078.12144	0.79862
1076.19278	0.79853
1074.26411	0.79838
1072.33545	0.79827
1070.40679	0.79825
1068.47813	0.79826
1066.54947	0.79825
1064.62081	0.79830
1062.69215	0.79841
1060.76349	0.79853
1058.83483	0.79861
1056.90617	0.79865
1054.97751	0.79869
1053.04885	0.79883
1051.12018	0.79905
1049.19152	0.79920
1047.26286	0.79925
1045.33420	0.79927
1043.40554	0.79932
1041.47688	0.79941
1039.54822	0.79949
1037.61956	0.79952
1035.69090	0.79956
1033.76224	0.79958
1031.83358	0.79952
1029.90491	0.79945
1027.97625	0.79942
1026.04759	0.79937
1024.11893	0.79924
1022.19027	0.79908
1020.26161	0.79892
1018.33295	0.79881
1016.40429	0.79876
1014.47563	0.79875
1012.54697	0.79871
1010.61831	0.79860
1008.68964	0.79839
1006.76098	0.79815
1004.83232	0.79790
1002.90366	0.79766
1000.97500	0.79744
999.04634	0.79724
997.11768	0.79701
995.18902	0.79671
993.26036	0.79640
991.33170	0.79614
989.40304	0.79592
987.47438	0.79570
985.54571	0.79542
983.61705	0.79503
981.68839	0.79461
979.75973	0.79427
977.83107	0.79403
975.90241	0.79381
973.97375	0.79357
972.04509	0.79335
970.11643	0.79315
968.18777	0.79294
966.25911	0.79276
964.33044	0.79268
962.40178	0.79258
960.47312	0.79235
958.54446	0.79203
956.61580	0.79177
954.68714	0.79159
952.75848	0.79147
950.82982	0.79138
948.90116	0.79125
946.97250	0.79103
945.04384	0.79074
943.11517	0.79049
941.18651	0.79033
939.25785	0.79015
937.32919	0.78989
935.40053	0.78967
933.47187	0.78955
931.54321	0.78943
929.61455	0.78927
927.68589	0.78912
925.75723	0.78900
923.82857	0.78894
921.89990	0.78895
919.97124	0.78894
918.04258	0.78880
916.11392	0.78860
914.18526	0.78837
912.25660	0.78809
910.32794	0.78787
908.39928	0.78776
906.47062	0.78761
904.54196	0.78734
902.61330	0.78708
900.68464	0.78688
898.75597	0.78668
896.82731	0.78646
894.89865	0.78624
892.96999	0.78602
891.04133	0.78585
889.11267	0.78573
887.18401	0.78563
885.25535	0.78556
883.32669	0.78553
881.39803	0.78546
879.46937	0.78528
877.54070	0.78506
875.61204	0.78480
873.68338	0.78443
871.75472	0.78401
869.82606	0.78369
867.89740	0.78341
865.96874	0.78308
864.04008	0.78270
862.11142	0.78231
860.18276	0.78189
858.25410	0.78143
856.32543	0.78094
854.39677	0.78050
852.46811	0.78014
850.53945	0.77979
848.61079	0.77948
846.68213	0.77922
844.75347	0.77900
842.82481	0.77876
840.89615	0.77849
838.96749	0.77818
837.03883	0.77784
835.11016	0.77741
833.18150	0.77684
831.25284	0.77618
829.32418	0.77549
827.39552	0.77460
825.46686	0.77339
823.53820	0.77196
821.60954	0.77047
819.68088	0.76895
817.75222	0.76748
815.82356	0.76609
813.89490	0.76470
811.96623	0.76322
810.03757	0.76169
808.10891	0.76015
806.18025	0.75843
804.25159	0.75638
802.32293	0.75402
800.39427	0.75134
798.46561	0.74840
796.53695	0.74539
794.60829	0.74247
792.67963	0.73964
790.75096	0.73685
788.82230	0.73403
786.89364	0.73116
784.96498	0.72822
783.03632	0.72525
781.10766	0.72238
779.17900	0.71952
777.25034	0.71651
775.32168	0.71336
773.39302	0.71020
771.46436	0.70713
769.53569	0.70407
767.60703	0.70085
765.67837	0.69738
763.74971	0.69384
761.82105	0.69043
759.89239	0.68707
757.96373	0.68352
756.03507	0.67984
754.10641	0.67622
752.17775	0.67267
750.24909	0.66902
748.32042	0.66525
746.39176	0.66143
744.46310	0.65761
742.53444	0.65397
740.60578	0.65061
738.67712	0.64737
736.74846	0.64397
734.81980	0.64051
732.89114	0.63741
730.96248	0.63484
729.03382	0.63254
727.10516	0.63025
725.17649	0.62789
723.24783	0.62544
721.31917	0.62280
719.39051	0.62000
717.46185	0.61739
715.53319	0.61524
713.60453	0.61355
711.67587	0.61226
709.74721	0.61138
707.81855	0.61083
705.88989	0.61036
703.96122	0.60990
702.03256	0.60951
700.10390	0.60933
698.17524	0.60935
696.24658	0.60944
694.31792	0.60965
692.38926	0.61000
690.46060	0.61024
688.53194	0.61030
686.60328	0.61043
684.67462	0.61087
682.74595	0.61163
680.81729	0.61255
678.88863	0.61342
676.95997	0.61420
675.03131	0.61492
673.10265	0.61570
671.17399	0.61682
669.24533	0.61841
667.31667	0.61963
665.38801	0.62012
663.45935	0.62084
661.53068	0.62196
659.60202	0.62325
657.67336	0.62468
655.74470	0.62620
653.81604	0.62765
651.88738	0.62904
649.95872	0.63046
648.03006	0.63178
646.10140	0.63279
644.17274	0.63347
642.24408	0.63396
640.31542	0.63446
638.38675	0.63473
636.45809	0.63435
634.52943	0.63360
632.60077	0.63309
630.67211	0.63258
628.74345	0.63178
626.81479	0.63083
624.88613	0.63003
622.95747	0.62947
621.02881	0.62899
619.10015	0.62844
617.17148	0.62791
615.24282	0.62750
613.31416	0.62740
611.38550	0.62808
609.45684	0.62932
607.52818	0.63038
605.59952	0.63115
603.67086	0.63205
601.74220	0.63348
599.81354	0.63508
597.88488	0.63667
595.95621	0.63834
594.02755	0.63981
592.09889	0.64098
590.17023	0.64254
588.24157	0.64417
586.31291	0.64484
584.38425	0.64479
582.45559	0.64496
580.52693	0.64529
578.59827	0.64576
576.66961	0.64656
574.74094	0.64718
572.81228	0.64718
570.88362	0.64704
568.95496	0.64725
567.02630	0.64750
565.09764	0.64768
563.16898	0.64796
561.24032	0.64797
559.31166	0.64761
557.38300	0.64732
555.45434	0.64746
553.52568	0.64793
551.59701	0.64834
549.66835	0.64860
547.73969	0.64897
545.81103	0.64937
543.88237	0.64950
541.95371	0.64949
540.02505	0.64934
538.09639	0.64870
536.16773	0.64803
534.23907	0.64777
532.31041	0.64764
530.38174	0.64757
528.45308	0.64748
526.52442	0.64725
524.59576	0.64717
522.66710	0.64732
520.73844	0.64717
518.80978	0.64653
516.88112	0.64587
514.95246	0.64538
513.02380	0.64512
511.09514	0.64505
509.16647	0.64459
507.23781	0.64386
505.30915	0.64360
503.38049	0.64376
501.45183	0.64399
499.52317	0.64402
497.59451	0.64371
495.66585	0.64328
493.73719	0.64269
491.80853	0.64203
489.87987	0.64200
487.95120	0.64231
486.02254	0.64219
484.09388	0.64192
482.16522	0.64196
480.23656	0.64209
478.30790	0.64224
476.37924	0.64244
474.45058	0.64230
472.52192	0.64186
470.59326	0.64179
468.66460	0.64232
466.73594	0.64289
464.80727	0.64280
462.87861	0.64222
460.94995	0.64179
459.02129	0.64172
457.09263	0.64168
455.16397	0.64129
453.23531	0.64056
451.30665	0.64025
449.37799	0.64101
447.44933	0.64236
445.52067	0.64311
443.59200	0.64283
441.66334	0.64218
439.73468	0.64185
437.80602	0.64195
435.87736	0.64209
433.94870	0.64195
432.02004	0.64178
430.09138	0.64160
428.16272	0.64124
426.23406	0.64104
424.30540	0.64123
422.37673	0.64144
420.44807	0.64132
418.51941	0.64128
416.59075	0.64169
414.66209	0.64214
412.73343	0.64233
410.80477	0.64227
408.87611	0.64205
406.94745	0.64199
405.01879	0.64216
403.09013	0.64230
401.16146	0.64230
399.23280	0.64204
