3996.23848	0.34169
3994.30979	0.34039
3992.38110	0.34034
3990.45242	0.33773
3988.52373	0.33392
3986.59504	0.33370
3984.66636	0.34079
3982.73767	0.34904
3980.80898	0.34986
3978.88030	0.34462
3976.95161	0.34021
3975.02292	0.34248
3973.09424	0.34857
3971.16555	0.34819
3969.23687	0.34106
3967.30818	0.33637
3965.37949	0.33497
3963.45081	0.33440
3961.52212	0.33603
3959.59343	0.33703
3957.66475	0.33643
3955.73606	0.33889
3953.80737	0.34366
3951.87869	0.34462
3949.95000	0.34004
3948.02131	0.33609
3946.09263	0.33538
3944.16394	0.33406
3942.23525	0.33494
3940.30657	0.34079
3938.37788	0.34384
3936.44919	0.34020
3934.52051	0.33604
3932.59182	0.33330
3930.66313	0.33108
3928.73445	0.33147
3926.80576	0.33205
3924.87708	0.33143
3922.94839	0.33218
3921.01970	0.33096
3919.09102	0.32667
3917.16233	0.32601
3915.23364	0.33088
3913.30496	0.33664
3911.37627	0.33908
3909.44758	0.33723
3907.51890	0.33151
3905.59021	0.32193
3903.66152	0.31302
3901.73284	0.31022
3899.80415	0.31344
3897.87546	0.32049
3895.94678	0.32800
3894.01809	0.32965
3892.08940	0.32438
3890.16072	0.32172
3888.23203	0.32206
3886.30334	0.31905
3884.37466	0.31804
3882.44597	0.31948
3880.51729	0.32000
3878.58860	0.32159
3876.65991	0.32137
3874.73123	0.31933
3872.80254	0.31550
3870.87385	0.30911
3868.94517	0.31030
3867.01648	0.31805
3865.08779	0.32094
3863.15911	0.32318
3861.23042	0.32883
3859.30173	0.33084
3857.37305	0.32035
3855.44436	0.29684
3853.51567	0.28263
3851.58699	0.29511
3849.65830	0.31747
3847.72961	0.33014
3845.80093	0.33060
3843.87224	0.32410
3841.94355	0.31499
3840.01487	0.30362
3838.08618	0.29668
3836.15750	0.30177
3834.22881	0.31056
3832.30012	0.31530
3830.37144	0.32079
3828.44275	0.32731
3826.51406	0.32944
3824.58538	0.32278
3822.65669	0.30671
3820.72800	0.29561
3818.79932	0.29772
3816.87063	0.30298
3814.94194	0.31394
3813.01326	0.33188
3811.08457	0.34002
3809.15588	0.33336
3807.22720	0.32631
3805.29851	0.32308
3803.36982	0.31288
3801.44114	0.30465
3799.51245	0.30956
3797.58376	0.31619
3795.65508	0.32323
3793.72639	0.33534
3791.79771	0.34316
3789.86902	0.34237
3787.94033	0.33851
3786.01165	0.33539
3784.08296	0.33451
3782.15427	0.33339
3780.22559	0.32981
3778.29690	0.32871
3776.36821	0.33161
3774.43953	0.33324
3772.51084	0.33012
3770.58215	0.32397
3768.65347	0.31805
3766.72478	0.31501
3764.79609	0.31876
3762.86741	0.32530
3760.93872	0.32358
3759.01003	0.31691
3757.08135	0.31609
3755.15266	0.31221
3753.22397	0.29362
3751.29529	0.27608
3749.36660	0.27586
3747.43792	0.27709
3745.50923	0.26843
3743.58054	0.27231
3741.65186	0.29439
3739.72317	0.30731
3737.79448	0.30117
3735.86580	0.28989
3733.93711	0.28551
3732.00842	0.29161
3730.07974	0.30318
3728.15105	0.30984
3726.22236	0.31000
3724.29368	0.30924
3722.36499	0.30875
3720.43630	0.31017
3718.50762	0.31546
3716.57893	0.31910
3714.65024	0.31248
3712.72156	0.29895
3710.79287	0.29339
3708.86418	0.30008
3706.93550	0.31068
3705.00681	0.31717
3703.07812	0.31631
3701.14944	0.31616
3699.22075	0.32299
3697.29207	0.32766
3695.36338	0.32299
3693.43469	0.31176
3691.50601	0.29814
3689.57732	0.29088
3687.64863	0.29941
3685.71995	0.31533
3683.79126	0.32260
3681.86257	0.32167
3679.93389	0.31685
3678.00520	0.30131
3676.07651	0.28195
3674.14783	0.27938
3672.21914	0.28541
3670.29045	0.28564
3668.36177	0.29249
3666.43308	0.30730
3664.50439	0.31787
3662.57571	0.32279
3660.64702	0.32286
3658.71833	0.31670
3656.78965	0.31032
3654.86096	0.31029
3652.93228	0.30555
3651.00359	0.28935
3649.07490	0.28019
3647.14622	0.29045
3645.21753	0.30738
3643.28884	0.31869
3641.36016	0.32520
3639.43147	0.32727
3637.50278	0.32403
3635.57410	0.31998
3633.64541	0.31623
3631.71672	0.30369
3629.78804	0.28495
3627.85935	0.28255
3625.93066	0.29752
3624.00198	0.30728
3622.07329	0.30427
3620.14460	0.29781
3618.21592	0.29722
3616.28723	0.30126
3614.35854	0.30395
3612.42986	0.30465
3610.50117	0.30395
3608.57249	0.30421
3606.64380	0.30965
3604.71511	0.31657
3602.78643	0.31695
3600.85774	0.31177
3598.92905	0.30882
3597.00037	0.30834
3595.07168	0.30521
3593.14299	0.30314
3591.21431	0.30547
3589.28562	0.30650
3587.35693	0.30538
3585.42825	0.30638
3583.49956	0.31155
3581.57087	0.31875
3579.64219	0.32241
3577.71350	0.32184
3575.78481	0.32047
3573.85613	0.31956
3571.92744	0.31762
3569.99875	0.31110
3568.07007	0.30324
3566.14138	0.30378
3564.21270	0.31175
3562.28401	0.31871
3560.35532	0.32226
3558.42664	0.32227
3556.49795	0.32012
3554.56926	0.31977
3552.64058	0.32020
3550.71189	0.31791
3548.78320	0.31339
3546.85452	0.30860
3544.92583	0.30763
3542.99714	0.31417
3541.06846	0.32167
3539.13977	0.32210
3537.21108	0.31922
3535.28240	0.31993
3533.35371	0.32205
3531.42502	0.32060
3529.49634	0.31730
3527.56765	0.31632
3525.63896	0.31750
3523.71028	0.31747
3521.78159	0.31815
3519.85291	0.32197
3517.92422	0.32360
3515.99553	0.32331
3514.06685	0.32617
3512.13816	0.32764
3510.20947	0.32444
3508.28079	0.32326
3506.35210	0.32598
3504.42341	0.32741
3502.49473	0.32705
3500.56604	0.32576
3498.63735	0.32100
3496.70867	0.31464
3494.77998	0.31392
3492.85129	0.31939
3490.92261	0.32404
3488.99392	0.32582
3487.06523	0.32716
3485.13655	0.32834
3483.20786	0.32738
3481.27917	0.32299
3479.35049	0.31958
3477.42180	0.32088
3475.49312	0.32290
3473.56443	0.32216
3471.63574	0.32154
3469.70706	0.32305
3467.77837	0.32399
3465.84968	0.32419
3463.92100	0.32432
3461.99231	0.32284
3460.06362	0.32266
3458.13494	0.32393
3456.20625	0.32247
3454.27756	0.32130
3452.34888	0.32332
3450.42019	0.32395
3448.49150	0.32204
3446.56282	0.32423
3444.63413	0.33020
3442.70544	0.33201
3440.77676	0.33055
3438.84807	0.32986
3436.91938	0.32859
3434.99070	0.32721
3433.06201	0.32718
3431.13333	0.32712
3429.20464	0.32717
3427.27595	0.32855
3425.34727	0.32933
3423.41858	0.32759
3421.48989	0.32394
3419.56121	0.32105
3417.63252	0.32204
3415.70383	0.32618
3413.77515	0.32789
3411.84646	0.32534
3409.91777	0.32396
3407.98909	0.32583
3406.06040	0.32769
3404.13171	0.32756
3402.20303	0.32647
3400.27434	0.32679
3398.34565	0.32768
3396.41697	0.32761
3394.48828	0.32877
3392.55959	0.33061
3390.63091	0.32996
3388.70222	0.32841
3386.77354	0.32876
3384.84485	0.33034
3382.91616	0.33216
3380.98748	0.33461
3379.05879	0.33504
3377.13010	0.33178
3375.20142	0.33012
3373.27273	0.33187
3371.34404	0.33275
3369.41536	0.33022
3367.48667	0.32593
3365.55798	0.32300
3363.62930	0.32298
3361.70061	0.32649
3359.77192	0.32936
3357.84324	0.32851
3355.91455	0.32793
3353.98586	0.32917
3352.05718	0.33054
3350.12849	0.33193
3348.19980	0.33349
3346.27112	0.33405
3344.34243	0.33350
3342.41375	0.33257
3340.48506	0.33228
3338.55637	0.33253
3336.62769	0.33040
3334.69900	0.32803
3332.77031	0.32954
3330.84163	0.33138
3328.91294	0.33057
3326.98425	0.33076
3325.05557	0.33392
3323.12688	0.33717
3321.19819	0.33776
3319.26951	0.33653
3317.34082	0.33687
3315.41213	0.33683
3313.48345	0.33278
3311.55476	0.32905
3309.62607	0.32962
3307.69739	0.33080
3305.76870	0.32882
3303.84001	0.32481
3301.91133	0.32246
3299.98264	0.32696
3298.05396	0.33461
3296.12527	0.33449
3294.19658	0.32928
3292.26790	0.32621
3290.33921	0.32381
3288.41052	0.32365
3286.48184	0.32858
3284.55315	0.33403
3282.62446	0.33609
3280.69578	0.33554
3278.76709	0.33378
3276.83840	0.33378
3274.90972	0.33502
3272.98103	0.33348
3271.05234	0.33125
3269.12366	0.33233
3267.19497	0.33488
3265.26628	0.33553
3263.33760	0.33259
3261.40891	0.32729
3259.48022	0.32526
3257.55154	0.32701
3255.62285	0.32711
3253.69417	0.32627
3251.76548	0.32752
3249.83679	0.32905
3247.90811	0.32860
3245.97942	0.32740
3244.05073	0.32782
3242.12205	0.33034
3240.19336	0.33222
3238.26467	0.33022
3236.33599	0.32609
3234.40730	0.32312
3232.47861	0.32257
3230.54993	0.32361
3228.62124	0.32463
3226.69255	0.32673
3224.76387	0.32937
3222.83518	0.32929
3220.90649	0.32650
3218.97781	0.32506
3217.04912	0.32712
3215.12043	0.32854
3213.19175	0.32765
3211.26306	0.32881
3209.33437	0.33205
3207.40569	0.33300
3205.47700	0.33160
3203.54832	0.33064
3201.61963	0.33186
3199.69094	0.33462
3197.76226	0.33466
3195.83357	0.33101
3193.90488	0.32791
3191.97620	0.32661
3190.04751	0.32572
3188.11882	0.32621
3186.19014	0.32847
3184.26145	0.32951
3182.33276	0.32802
3180.40408	0.32646
3178.47539	0.32790
3176.54670	0.33128
3174.61802	0.33199
3172.68933	0.33171
3170.76064	0.33326
3168.83196	0.33307
3166.90327	0.33092
3164.97458	0.33071
3163.04590	0.33106
3161.11721	0.32749
3159.18853	0.32273
3157.25984	0.32155
3155.33115	0.32201
3153.40247	0.32355
3151.47378	0.32813
3149.54509	0.33430
3147.61641	0.33788
3145.68772	0.33607
3143.75903	0.33155
3141.83035	0.32896
3139.90166	0.32855
3137.97297	0.32822
3136.04429	0.32827
3134.11560	0.32885
3132.18691	0.32820
3130.25823	0.32690
3128.32954	0.32622
3126.40085	0.32608
3124.47217	0.32759
3122.54348	0.33070
3120.61479	0.33258
3118.68611	0.33234
3116.75742	0.33199
3114.82874	0.33153
3112.90005	0.33109
3110.97136	0.33168
3109.04268	0.33083
3107.11399	0.32726
3105.18530	0.32437
3103.25662	0.32492
3101.32793	0.32734
3099.39924	0.32821
3097.47056	0.32767
3095.54187	0.32738
3093.61318	0.32764
3091.68450	0.32910
3089.75581	0.32982
3087.82712	0.32786
3085.89844	0.32607
3083.96975	0.32584
3082.04106	0.32507
3080.11238	0.32379
3078.18369	0.32436
3076.25500	0.32626
3074.32632	0.32697
3072.39763	0.32761
3070.46895	0.32956
3068.54026	0.32992
3066.61157	0.32767
3064.68289	0.32597
3062.75420	0.32582
3060.82551	0.32653
3058.89683	0.32849
3056.96814	0.32983
3055.03945	0.32884
3053.11077	0.32762
3051.18208	0.32820
3049.25339	0.33031
3047.32471	0.33232
3045.39602	0.33189
3043.46733	0.32961
3041.53865	0.32821
3039.60996	0.32764
3037.68127	0.32850
3035.75259	0.33104
3033.82390	0.33085
3031.89521	0.32662
3029.96653	0.32220
3028.03784	0.32056
3026.10916	0.32199
3024.18047	0.32460
3022.25178	0.32693
3020.32310	0.32845
3018.39441	0.32857
3016.46572	0.32822
3014.53704	0.32776
3012.60835	0.32723
3010.67966	0.32929
3008.75098	0.33285
3006.82229	0.33321
3004.89360	0.33112
3002.96492	0.33054
3001.03623	0.33177
2999.10754	0.33270
2997.17886	0.33271
2995.25017	0.33252
2993.32148	0.33352
2991.39280	0.33552
2989.46411	0.33443
2987.53542	0.32943
2985.60674	0.32610
2983.67805	0.32662
2981.74937	0.32757
2979.82068	0.32756
2977.89199	0.32851
2975.96331	0.33167
2974.03462	0.33471
2972.10593	0.33432
2970.17725	0.33274
2968.24856	0.33306
2966.31987	0.33199
2964.39119	0.32743
2962.46250	0.32409
2960.53381	0.32435
2958.60513	0.32484
2956.67644	0.32432
2954.74775	0.32374
2952.81907	0.32394
2950.89038	0.32669
2948.96169	0.32949
2947.03301	0.32996
2945.10432	0.33207
2943.17563	0.33505
2941.24695	0.33290
2939.31826	0.32873
2937.38958	0.33008
2935.46089	0.33483
2933.53220	0.33721
2931.60352	0.33677
2929.67483	0.33287
2927.74614	0.32749
2925.81746	0.32650
2923.88877	0.32835
2921.96008	0.32904
2920.03140	0.32994
2918.10271	0.33153
2916.17402	0.33295
2914.24534	0.33394
2912.31665	0.33340
2910.38796	0.33093
2908.45928	0.32850
2906.53059	0.32868
2904.60190	0.33018
2902.67322	0.32950
2900.74453	0.32764
2898.81584	0.32685
2896.88716	0.32653
2894.95847	0.32659
2893.02979	0.32802
2891.10110	0.32952
2889.17241	0.32819
2887.24373	0.32667
2885.31504	0.32907
2883.38635	0.33246
2881.45767	0.33363
2879.52898	0.33316
2877.60029	0.33261
2875.67161	0.33176
2873.74292	0.32839
2871.81423	0.32414
2869.88555	0.32260
2867.95686	0.32298
2866.02817	0.32339
2864.09949	0.32463
2862.17080	0.32719
2860.24211	0.32963
2858.31343	0.33071
2856.38474	0.32976
2854.45605	0.32792
2852.52737	0.32721
2850.59868	0.32721
2848.67000	0.32693
2846.74131	0.32622
2844.81262	0.32535
2842.88394	0.32538
2840.95525	0.32649
2839.02656	0.32731
2837.09788	0.32775
2835.16919	0.32888
2833.24050	0.33056
2831.31182	0.33189
2829.38313	0.33178
2827.45444	0.33031
2825.52576	0.32923
2823.59707	0.32967
2821.66838	0.33076
2819.73970	0.33117
2817.81101	0.33052
2815.88232	0.32944
2813.95364	0.32878
2812.02495	0.32835
2810.09626	0.32801
2808.16758	0.32832
2806.23889	0.32871
2804.31021	0.32811
2802.38152	0.32636
2800.45283	0.32555
2798.52415	0.32742
2796.59546	0.32939
2794.66677	0.32992
2792.73809	0.33094
2790.80940	0.33175
2788.88071	0.33025
2786.95203	0.32723
2785.02334	0.32542
2783.09465	0.32628
2781.16597	0.32705
2779.23728	0.32673
2777.30859	0.32843
2775.37991	0.33100
2773.45122	0.33071
2771.52253	0.32765
2769.59385	0.32564
2767.66516	0.32680
2765.73647	0.32755
2763.80779	0.32597
2761.87910	0.32574
2759.95042	0.32775
2758.02173	0.32884
2756.09304	0.32852
2754.16436	0.32776
2752.23567	0.32669
2750.30698	0.32564
2748.37830	0.32468
2746.44961	0.32566
2744.52092	0.32837
2742.59224	0.32846
2740.66355	0.32597
2738.73486	0.32477
2736.80618	0.32475
2734.87749	0.32547
2732.94880	0.33039
2731.02012	0.33791
2729.09143	0.34077
2727.16274	0.33693
2725.23406	0.33017
2723.30537	0.32519
2721.37668	0.32444
2719.44800	0.32604
2717.51931	0.32689
2715.59062	0.32637
2713.66194	0.32463
2711.73325	0.32319
2709.80457	0.32417
2707.87588	0.32565
2705.94719	0.32644
2704.01851	0.32765
2702.08982	0.32841
2700.16113	0.32913
2698.23245	0.33089
2696.30376	0.33147
2694.37507	0.32902
2692.44639	0.32677
2690.51770	0.32746
2688.58901	0.32779
2686.66033	0.32645
2684.73164	0.32751
2682.80295	0.33005
2680.87427	0.32937
2678.94558	0.32781
2677.01689	0.32935
2675.08821	0.33140
2673.15952	0.33065
2671.23083	0.32828
2669.30215	0.32671
2667.37346	0.32638
2665.44478	0.32684
2663.51609	0.32694
2661.58740	0.32626
2659.65872	0.32691
2657.73003	0.32913
2655.80134	0.33054
2653.87266	0.33044
2651.94397	0.32899
2650.01528	0.32669
2648.08660	0.32575
2646.15791	0.32700
2644.22922	0.32800
2642.30054	0.32695
2640.37185	0.32516
2638.44316	0.32480
2636.51448	0.32589
2634.58579	0.32648
2632.65710	0.32532
2630.72842	0.32359
2628.79973	0.32420
2626.87104	0.32777
2624.94236	0.33040
2623.01367	0.32973
2621.08499	0.32846
2619.15630	0.32712
2617.22761	0.32455
2615.29893	0.32332
2613.37024	0.32460
2611.44155	0.32668
2609.51287	0.32816
2607.58418	0.32805
2605.65549	0.32681
2603.72681	0.32599
2601.79812	0.32594
2599.86943	0.32574
2597.94075	0.32545
2596.01206	0.32572
2594.08337	0.32620
2592.15469	0.32647
2590.22600	0.32765
2588.29731	0.33063
2586.36863	0.33172
2584.43994	0.32951
2582.51125	0.32936
2580.58257	0.33186
2578.65388	0.33189
2576.72520	0.32930
2574.79651	0.32846
2572.86782	0.33004
2570.93914	0.33132
2569.01045	0.33113
2567.08176	0.33016
2565.15308	0.32951
2563.22439	0.32836
2561.29570	0.32566
2559.36702	0.32341
2557.43833	0.32345
2555.50964	0.32390
2553.58096	0.32344
2551.65227	0.32384
2549.72358	0.32508
2547.79490	0.32582
2545.86621	0.32613
2543.93752	0.32579
2542.00884	0.32587
2540.08015	0.32765
2538.15146	0.32885
2536.22278	0.32810
2534.29409	0.32676
2532.36541	0.32485
2530.43672	0.32363
2528.50803	0.32429
2526.57935	0.32367
2524.65066	0.32118
2522.72197	0.32149
2520.79329	0.32643
2518.86460	0.33178
2516.93591	0.33219
2515.00723	0.32828
2513.07854	0.32523
2511.14985	0.32460
2509.22117	0.32463
2507.29248	0.32417
2505.36379	0.32364
2503.43511	0.32470
2501.50642	0.32668
2499.57773	0.32793
2497.64905	0.32962
2495.72036	0.33266
2493.79167	0.33445
2491.86299	0.33262
2489.93430	0.32894
2488.00562	0.32614
2486.07693	0.32548
2484.14824	0.32667
2482.21956	0.32826
2480.29087	0.32967
2478.36218	0.33021
2476.43350	0.32872
2474.50481	0.32615
2472.57612	0.32467
2470.64744	0.32404
2468.71875	0.32377
2466.79006	0.32497
2464.86138	0.32631
2462.93269	0.32710
2461.00400	0.32931
2459.07532	0.33166
2457.14663	0.33130
2455.21794	0.32798
2453.28926	0.32410
2451.36057	0.32255
2449.43188	0.32340
2447.50320	0.32483
2445.57451	0.32646
2443.64583	0.32755
2441.71714	0.32620
2439.78845	0.32394
2437.85977	0.32410
2435.93108	0.32557
2434.00239	0.32591
2432.07371	0.32669
2430.14502	0.32856
2428.21633	0.32909
2426.28765	0.32869
2424.35896	0.32915
2422.43027	0.32954
2420.50159	0.32867
2418.57290	0.32799
2416.64421	0.32910
2414.71553	0.33028
2412.78684	0.33023
2410.85815	0.33016
2408.92947	0.32995
2407.00078	0.32890
2405.07209	0.32735
2403.14341	0.32568
2401.21472	0.32447
2399.28604	0.32459
2397.35735	0.32674
2395.42866	0.32931
2393.49998	0.32913
2391.57129	0.32633
2389.64260	0.32294
2387.71392	0.32013
2385.78523	0.31697
2383.85654	0.31012
2381.92786	0.29967
2379.99917	0.28793
2378.07048	0.27395
2376.14180	0.25631
2374.21311	0.23622
2372.28442	0.21666
2370.35574	0.19957
2368.42705	0.18588
2366.49836	0.17583
2364.56968	0.16847
2362.64099	0.16329
2360.71230	0.16065
2358.78362	0.16300
2356.85493	0.17282
2354.92625	0.18756
2352.99756	0.20567
2351.06887	0.22756
2349.14019	0.24176
2347.21150	0.23493
2345.28281	0.21549
2343.35413	0.20049
2341.42544	0.19463
2339.49675	0.19505
2337.56807	0.19769
2335.63938	0.19926
2333.71069	0.19980
2331.78201	0.20107
2329.85332	0.20390
2327.92463	0.20788
2325.99595	0.21247
2324.06726	0.21736
2322.13857	0.22321
2320.20989	0.23186
2318.28120	0.24316
2316.35251	0.25427
2314.42383	0.26320
2312.49514	0.27026
2310.56646	0.27685
2308.63777	0.28416
2306.70908	0.29178
2304.78040	0.29849
2302.85171	0.30366
2300.92302	0.30755
2298.99434	0.31056
2297.06565	0.31260
2295.13696	0.31395
2293.20828	0.31546
2291.27959	0.31728
2289.35090	0.31989
2287.42222	0.32341
2285.49353	0.32456
2283.56484	0.32208
2281.63616	0.31979
2279.70747	0.31942
2277.77878	0.31971
2275.85010	0.32021
2273.92141	0.32174
2271.99272	0.32440
2270.06404	0.32535
2268.13535	0.32324
2266.20667	0.32137
2264.27798	0.32111
2262.34929	0.32098
2260.42061	0.32066
2258.49192	0.32032
2256.56323	0.32019
2254.63455	0.32101
2252.70586	0.32339
2250.77717	0.32609
2248.84849	0.32739
2246.91980	0.32759
2244.99111	0.32725
2243.06243	0.32747
2241.13374	0.32911
2239.20505	0.32992
2237.27637	0.32758
2235.34768	0.32443
2233.41899	0.32427
2231.49031	0.32618
2229.56162	0.32668
2227.63293	0.32498
2225.70425	0.32353
2223.77556	0.32400
2221.84687	0.32518
2219.91819	0.32651
2217.98950	0.32835
2216.06082	0.32993
2214.13213	0.33053
2212.20344	0.33001
2210.27476	0.32861
2208.34607	0.32807
2206.41738	0.32968
2204.48870	0.33046
2202.56001	0.32829
2200.63132	0.32568
2198.70264	0.32445
2196.77395	0.32464
2194.84526	0.32563
2192.91658	0.32560
2190.98789	0.32464
2189.05920	0.32518
2187.13052	0.32731
2185.20183	0.32939
2183.27314	0.33052
2181.34446	0.32916
2179.41577	0.32613
2177.48708	0.32501
2175.55840	0.32564
2173.62971	0.32527
2171.70103	0.32493
2169.77234	0.32652
2167.84365	0.32782
2165.91497	0.32666
2163.98628	0.32488
2162.05759	0.32429
2160.12891	0.32467
2158.20022	0.32700
2156.27153	0.33010
2154.34285	0.32999
2152.41416	0.32777
2150.48547	0.32672
2148.55679	0.32654
2146.62810	0.32598
2144.69941	0.32435
2142.77073	0.32292
2140.84204	0.32434
2138.91335	0.32748
2136.98467	0.32863
2135.05598	0.32835
2133.12729	0.32847
2131.19861	0.32754
2129.26992	0.32611
2127.34124	0.32650
2125.41255	0.32679
2123.48386	0.32541
2121.55518	0.32584
2119.62649	0.32832
2117.69780	0.32829
2115.76912	0.32584
2113.84043	0.32427
2111.91174	0.32388
2109.98306	0.32427
2108.05437	0.32510
2106.12568	0.32548
2104.19700	0.32569
2102.26831	0.32624
2100.33962	0.32693
2098.41094	0.32723
2096.48225	0.32679
2094.55356	0.32630
2092.62488	0.32568
2090.69619	0.32464
2088.76750	0.32441
2086.83882	0.32580
2084.91013	0.32785
2082.98145	0.32804
2081.05276	0.32546
2079.12407	0.32321
2077.19539	0.32374
2075.26670	0.32468
2073.33801	0.32370
2071.40933	0.32275
2069.48064	0.32347
2067.55195	0.32512
2065.62327	0.32630
2063.69458	0.32553
2061.76589	0.32349
2059.83721	0.32284
2057.90852	0.32519
2055.97983	0.32842
2054.05115	0.32866
2052.12246	0.32640
2050.19377	0.32552
2048.26509	0.32608
2046.33640	0.32551
2044.40771	0.32420
2042.47903	0.32408
2040.55034	0.32528
2038.62166	0.32621
2036.69297	0.32572
2034.76428	0.32393
2032.83560	0.32214
2030.90691	0.32203
2028.97822	0.32307
2027.04954	0.32344
2025.12085	0.32278
2023.19216	0.32276
2021.26348	0.32374
2019.33479	0.32379
2017.40610	0.32364
2015.47742	0.32479
2013.54873	0.32500
2011.62004	0.32378
2009.69136	0.32439
2007.76267	0.32622
2005.83398	0.32566
2003.90530	0.32336
2001.97661	0.32269
2000.04792	0.32466
1998.11924	0.32653
1996.19055	0.32565
1994.26187	0.32297
1992.33318	0.32130
1990.40449	0.32180
1988.47581	0.32361
1986.54712	0.32516
1984.61843	0.32548
1982.68975	0.32571
1980.76106	0.32592
1978.83237	0.32442
1976.90369	0.32242
1974.97500	0.32229
1973.04631	0.32357
1971.11763	0.32481
1969.18894	0.32507
1967.26025	0.32440
1965.33157	0.32431
1963.40288	0.32442
1961.47419	0.32415
1959.54551	0.32469
1957.61682	0.32526
1955.68813	0.32547
1953.75945	0.32571
1951.83076	0.32554
1949.90208	0.32503
1947.97339	0.32340
1946.04470	0.32060
1944.11602	0.31905
1942.18733	0.32174
1940.25864	0.32745
1938.32996	0.33054
1936.40127	0.32939
1934.47258	0.32666
1932.54390	0.32423
1930.61521	0.32412
1928.68652	0.32659
1926.75784	0.32834
1924.82915	0.32745
1922.90046	0.32495
1920.97178	0.32179
1919.04309	0.31934
1917.11440	0.32037
1915.18572	0.32460
1913.25703	0.32734
1911.32834	0.32638
1909.39966	0.32433
1907.47097	0.32359
1905.54229	0.32442
1903.61360	0.32617
1901.68491	0.32727
1899.75623	0.32651
1897.82754	0.32450
1895.89885	0.32321
1893.97017	0.32303
1892.04148	0.32137
1890.11279	0.31855
1888.18411	0.31875
1886.25542	0.32250
1884.32673	0.32630
1882.39805	0.32726
1880.46936	0.32557
1878.54067	0.32502
1876.61199	0.32764
1874.68330	0.32880
1872.75461	0.32408
1870.82593	0.31636
1868.89724	0.31237
1866.96855	0.31476
1865.03987	0.31918
1863.11118	0.32197
1861.18250	0.32365
1859.25381	0.32502
1857.32512	0.32668
1855.39644	0.32793
1853.46775	0.32734
1851.53906	0.32525
1849.61038	0.32262
1847.68169	0.31889
1845.75300	0.31278
1843.82432	0.30987
1841.89563	0.31581
1839.96694	0.32324
1838.03826	0.32482
1836.10957	0.32345
1834.18088	0.32175
1832.25220	0.31663
1830.32351	0.31019
1828.39482	0.31027
1826.46614	0.31406
1824.53745	0.31723
1822.60876	0.32339
1820.68008	0.32911
1818.75139	0.32855
1816.82271	0.32516
1814.89402	0.32272
1812.96533	0.31994
1811.03665	0.31870
1809.10796	0.32127
1807.17927	0.32347
1805.25059	0.32251
1803.32190	0.31937
1801.39321	0.31544
1799.46453	0.31430
1797.53584	0.31631
1795.60715	0.31360
1793.67847	0.30478
1791.74978	0.30302
1789.82109	0.31216
1787.89241	0.31902
1785.96372	0.31818
1784.03503	0.31631
1782.10635	0.31639
1780.17766	0.31792
1778.24897	0.32078
1776.32029	0.31823
1774.39160	0.30511
1772.46292	0.29383
1770.53423	0.29657
1768.60554	0.30623
1766.67686	0.31442
1764.74817	0.31618
1762.81948	0.31060
1760.89080	0.30862
1758.96211	0.31179
1757.03342	0.31278
1755.10474	0.31176
1753.17605	0.30649
1751.24736	0.29913
1749.31868	0.29986
1747.38999	0.30690
1745.46130	0.31131
1743.53262	0.31125
1741.60393	0.30793
1739.67524	0.30540
1737.74656	0.30233
1735.81787	0.28986
1733.88918	0.28111
1731.96050	0.29281
1730.03181	0.30893
1728.10312	0.31600
1726.17444	0.31812
1724.24575	0.31925
1722.31707	0.31806
1720.38838	0.30605
1718.45969	0.28824
1716.53101	0.28342
1714.60232	0.29518
1712.67363	0.31097
1710.74495	0.31960
1708.81626	0.31724
1706.88757	0.30831
1704.95889	0.30169
1703.03020	0.29205
1701.10151	0.27563
1699.17283	0.27008
1697.24414	0.27685
1695.31545	0.28743
1693.38677	0.30385
1691.45808	0.31547
1689.52939	0.31512
1687.60071	0.30383
1685.67202	0.28397
1683.74333	0.27827
1681.81465	0.29633
1679.88596	0.31349
1677.95728	0.31298
1676.02859	0.30377
1674.09990	0.30134
1672.17122	0.30165
1670.24253	0.29849
1668.31384	0.30457
1666.38516	0.31738
1664.45647	0.31789
1662.52778	0.31195
1660.59910	0.31547
1658.67041	0.32026
1656.74172	0.30733
1654.81304	0.27623
1652.88435	0.25971
1650.95566	0.27648
1649.02698	0.29267
1647.09829	0.29257
1645.16960	0.29863
1643.24092	0.31236
1641.31223	0.31841
1639.38354	0.31307
1637.45486	0.29810
1635.52617	0.28826
1633.59749	0.29975
1631.66880	0.31672
1629.74011	0.31980
1627.81143	0.31552
1625.88274	0.31180
1623.95405	0.30921
1622.02537	0.31235
1620.09668	0.31558
1618.16799	0.30733
1616.23931	0.30115
1614.31062	0.31000
1612.38193	0.31917
1610.45325	0.32005
1608.52456	0.31990
1606.59587	0.32298
1604.66719	0.32632
1602.73850	0.32594
1600.80981	0.32358
1598.88113	0.32349
1596.95244	0.32538
1595.02375	0.32704
1593.09507	0.32739
1591.16638	0.32619
1589.23770	0.32504
1587.30901	0.32483
1585.38032	0.32427
1583.45164	0.32278
1581.52295	0.32110
1579.59426	0.31414
1577.66558	0.29909
1575.73689	0.29297
1573.80820	0.30261
1571.87952	0.30709
1569.95083	0.30351
1568.02214	0.30684
1566.09346	0.31315
1564.16477	0.31124
1562.23608	0.29297
1560.30740	0.26208
1558.37871	0.25056
1556.45002	0.26915
1554.52134	0.29043
1552.59265	0.30213
1550.66396	0.30802
1548.73528	0.31021
1546.80659	0.30600
1544.87791	0.29169
1542.94922	0.27073
1541.02053	0.25513
1539.09185	0.26312
1537.16316	0.28709
1535.23447	0.29779
1533.30579	0.29825
1531.37710	0.30468
1529.44841	0.30743
1527.51973	0.30047
1525.59104	0.29168
1523.66235	0.28031
1521.73367	0.27071
1519.80498	0.27377
1517.87629	0.28392
1515.94761	0.29293
1514.01892	0.30027
1512.09023	0.30246
1510.16155	0.29179
1508.23286	0.26898
1506.30417	0.26071
1504.37549	0.28223
1502.44680	0.30380
1500.51812	0.30420
1498.58943	0.29533
1496.66074	0.29434
1494.73206	0.30347
1492.80337	0.30716
1490.87468	0.30017
1488.94600	0.29789
1487.01731	0.30715
1485.08862	0.31778
1483.15994	0.32055
1481.23125	0.31783
1479.30256	0.31464
1477.37388	0.30798
1475.44519	0.29622
1473.51650	0.28763
1471.58782	0.29378
1469.65913	0.31013
1467.73044	0.31712
1465.80176	0.31279
1463.87307	0.31304
1461.94438	0.31638
1460.01570	0.30507
1458.08701	0.28421
1456.15833	0.28240
1454.22964	0.30176
1452.30095	0.31637
1450.37227	0.31740
1448.44358	0.31499
1446.51489	0.31766
1444.58621	0.32307
1442.65752	0.32487
1440.72883	0.32077
1438.80015	0.30897
1436.87146	0.29828
1434.94277	0.30179
1433.01409	0.31124
1431.08540	0.31435
1429.15671	0.31565
1427.22803	0.32027
1425.29934	0.32422
1423.37065	0.32228
1421.44197	0.31083
1419.51328	0.29691
1417.58459	0.29750
1415.65591	0.31074
1413.72722	0.32032
1411.79854	0.32246
1409.86985	0.32244
1407.94116	0.32202
1406.01248	0.32021
1404.08379	0.31864
1402.15510	0.31724
1400.22642	0.31504
1398.29773	0.31424
1396.36904	0.31393
1394.44036	0.31562
1392.51167	0.32185
1390.58298	0.32395
1388.65430	0.31809
1386.72561	0.31534
1384.79692	0.31934
1382.86824	0.32297
1380.93955	0.32442
1379.01086	0.32428
1377.08218	0.32086
1375.15349	0.31723
1373.22480	0.31850
1371.29612	0.32163
1369.36743	0.32222
1367.43875	0.32147
1365.51006	0.31783
1363.58137	0.31212
1361.65269	0.31225
1359.72400	0.31850
1357.79531	0.32324
1355.86663	0.32508
1353.93794	0.32712
1352.00925	0.32711
1350.08057	0.32430
1348.15188	0.32427
1346.22319	0.32768
1344.29451	0.32852
1342.36582	0.32403
1340.43713	0.31862
1338.50845	0.31718
1336.57976	0.31828
1334.65107	0.31953
1332.72239	0.32123
1330.79370	0.32312
1328.86501	0.32387
1326.93633	0.32387
1325.00764	0.32533
1323.07896	0.32685
1321.15027	0.32551
1319.22158	0.32256
1317.29290	0.32021
1315.36421	0.31892
1313.43552	0.31877
1311.50684	0.32025
1309.57815	0.32311
1307.64946	0.32451
1305.72078	0.32294
1303.79209	0.32161
1301.86340	0.32185
1299.93472	0.32100
1298.00603	0.31967
1296.07734	0.32051
1294.14866	0.32117
1292.21997	0.31902
1290.29128	0.31713
1288.36260	0.31826
1286.43391	0.32097
1284.50522	0.32345
1282.57654	0.32419
1280.64785	0.32262
1278.71917	0.32095
1276.79048	0.32065
1274.86179	0.32113
1272.93311	0.32243
1271.00442	0.32441
1269.07573	0.32554
1267.14705	0.32558
1265.21836	0.32557
1263.28967	0.32443
1261.36099	0.32229
1259.43230	0.32250
1257.50361	0.32442
1255.57493	0.32397
1253.64624	0.32119
1251.71755	0.31871
1249.78887	0.31812
1247.86018	0.31930
1245.93149	0.31989
1244.00281	0.31803
1242.07412	0.31608
1240.14543	0.31652
1238.21675	0.31667
1236.28806	0.31582
1234.35937	0.31755
1232.43069	0.32069
1230.50200	0.32104
1228.57332	0.31891
1226.64463	0.31775
1224.71594	0.31891
1222.78726	0.32152
1220.85857	0.32365
1218.92988	0.32338
1217.00120	0.32253
1215.07251	0.32341
1213.14382	0.32504
1211.21514	0.32607
1209.28645	0.32555
1207.35776	0.32390
1205.42908	0.32209
1203.50039	0.32006
1201.57170	0.31820
1199.64302	0.31663
1197.71433	0.31555
1195.78564	0.31649
1193.85696	0.31998
1191.92827	0.32326
1189.99958	0.32425
1188.07090	0.32452
1186.14221	0.32480
1184.21353	0.32523
1182.28484	0.32535
1180.35615	0.32378
1178.42747	0.32266
1176.49878	0.32324
1174.57009	0.32420
1172.64141	0.32559
1170.71272	0.32580
1168.78403	0.32404
1166.85535	0.32327
1164.92666	0.32485
1162.99797	0.32561
1161.06929	0.32404
1159.14060	0.32295
1157.21191	0.32257
1155.28323	0.32181
1153.35454	0.32202
1151.42585	0.32200
1149.49717	0.32000
1147.56848	0.31860
1145.63979	0.31877
1143.71111	0.31940
1141.78242	0.32166
1139.85374	0.32395
1137.92505	0.32375
1135.99636	0.32252
1134.06768	0.32100
1132.13899	0.31894
1130.21030	0.31758
1128.28162	0.31809
1126.35293	0.31946
1124.42424	0.31986
1122.49556	0.31868
1120.56687	0.31703
1118.63818	0.31685
1116.70950	0.31867
1114.78081	0.32173
1112.85212	0.32450
1110.92344	0.32518
1108.99475	0.32489
1107.06606	0.32657
1105.13738	0.32812
1103.20869	0.32475
1101.28000	0.31912
1099.35132	0.31691
1097.42263	0.31825
1095.49395	0.31927
1093.56526	0.31919
1091.63657	0.32144
1089.70789	0.32505
1087.77920	0.32583
1085.85051	0.32231
1083.92183	0.31807
1081.99314	0.31955
1080.06445	0.32388
1078.13577	0.32373
1076.20708	0.32191
1074.27839	0.32417
1072.34971	0.32857
1070.42102	0.32988
1068.49233	0.32770
1066.56365	0.32508
1064.63496	0.32443
1062.70627	0.32559
1060.77759	0.32558
1058.84890	0.32368
1056.92021	0.32234
1054.99153	0.32191
1053.06284	0.32102
1051.13416	0.32009
1049.20547	0.32094
1047.27678	0.32333
1045.34810	0.32362
1043.41941	0.32154
1041.49072	0.32158
1039.56204	0.32391
1037.63335	0.32611
1035.70466	0.32694
1033.77598	0.32389
1031.84729	0.31830
1029.91860	0.31628
1027.98992	0.31808
1026.06123	0.31756
1024.13254	0.31541
1022.20386	0.31684
1020.27517	0.31936
1018.34648	0.31899
1016.41780	0.31899
1014.48911	0.32102
1012.56042	0.32083
1010.63174	0.31841
1008.70305	0.31693
1006.77437	0.31603
1004.84568	0.31582
1002.91699	0.31807
1000.98831	0.32090
999.05962	0.31949
997.13093	0.31481
995.20225	0.31296
993.27356	0.31534
991.34487	0.31837
989.41619	0.31892
987.48750	0.31731
985.55881	0.31563
983.63013	0.31456
981.70144	0.31374
979.77275	0.31220
977.84407	0.31041
975.91538	0.31181
973.98669	0.31551
972.05801	0.31735
970.12932	0.31896
968.20063	0.32101
966.27195	0.32091
964.34326	0.31967
962.41458	0.31892
960.48589	0.31886
958.55720	0.31744
956.62852	0.31258
954.69983	0.30707
952.77114	0.30535
950.84246	0.30823
948.91377	0.31283
946.98508	0.31632
945.05640	0.31757
943.12771	0.31700
941.19902	0.31654
939.27034	0.31684
937.34165	0.31786
935.41296	0.32003
933.48428	0.31997
931.55559	0.31485
929.62690	0.31100
927.69822	0.31327
925.76953	0.31566
923.84084	0.31425
921.91216	0.31370
919.98347	0.31682
918.05479	0.32035
916.12610	0.31943
914.19741	0.31416
912.26873	0.31137
910.34004	0.31486
908.41135	0.31921
906.48267	0.31991
904.55398	0.31879
902.62529	0.31601
900.69661	0.31130
898.76792	0.30903
896.83923	0.31026
894.91055	0.31089
892.98186	0.30990
891.05317	0.30956
889.12449	0.31078
887.19580	0.31237
885.26711	0.31359
883.33843	0.31561
881.40974	0.31777
879.48105	0.31706
877.55237	0.31574
875.62368	0.31751
873.69500	0.31931
871.76631	0.31870
869.83762	0.31782
867.90894	0.31896
865.98025	0.32182
864.05156	0.32238
862.12288	0.31933
860.19419	0.31505
858.26550	0.30960
856.33682	0.30431
854.40813	0.30322
852.47944	0.30625
850.55076	0.31045
848.62207	0.31330
846.69338	0.31076
844.76470	0.30531
842.83601	0.30527
840.90732	0.30824
838.97864	0.30945
837.04995	0.31222
835.12126	0.31338
833.19258	0.30904
831.26389	0.30645
829.33521	0.30735
827.40652	0.30564
825.47783	0.30324
823.54915	0.30511
821.62046	0.30838
819.69177	0.30919
817.76309	0.30959
815.83440	0.31281
813.90571	0.31820
811.97703	0.32095
810.04834	0.31664
808.11965	0.30660
806.19097	0.29688
804.26228	0.29289
802.33359	0.29490
800.40491	0.29834
798.47622	0.29997
796.54753	0.30161
794.61885	0.30453
792.69016	0.30639
790.76147	0.30530
788.83279	0.30207
786.90410	0.29916
784.97542	0.29772
783.04673	0.29709
781.11804	0.29772
779.18936	0.30019
777.26067	0.30268
775.33198	0.30237
773.40330	0.29874
771.47461	0.29480
769.54592	0.29518
767.61724	0.29984
765.68855	0.30378
763.75986	0.30282
761.83118	0.29619
759.90249	0.28909
757.97380	0.28567
756.04512	0.28335
754.11643	0.28314
752.18774	0.28629
750.25906	0.28651
748.33037	0.28333
746.40168	0.28277
744.47300	0.28403
742.54431	0.28447
740.61562	0.28485
738.68694	0.28517
736.75825	0.28516
734.82957	0.28206
732.90088	0.27408
730.97219	0.26811
729.04351	0.26893
727.11482	0.27232
725.18613	0.27427
723.25745	0.27391
721.32876	0.27390
719.40007	0.27667
717.47139	0.27830
715.54270	0.27769
713.61401	0.27986
711.68533	0.28365
709.75664	0.28234
707.82795	0.27532
705.89927	0.26620
703.97058	0.25966
702.04189	0.25993
700.11321	0.26302
698.18452	0.26357
696.25583	0.26146
694.32715	0.25776
692.39846	0.25509
690.46978	0.25549
688.54109	0.25894
686.61240	0.26196
684.68372	0.26035
682.75503	0.25869
680.82634	0.25900
678.89766	0.25615
676.96897	0.25459
675.04028	0.25468
673.11160	0.24558
671.18291	0.22321
669.25422	0.19830
667.32554	0.19914
665.39685	0.22970
663.46816	0.25427
661.53948	0.25860
659.61079	0.25678
657.68210	0.25597
655.75342	0.25519
653.82473	0.25650
651.89604	0.26204
649.96736	0.26566
648.03867	0.26140
646.10999	0.25424
644.18130	0.25322
642.25261	0.25816
640.32393	0.26232
638.39524	0.26522
636.46655	0.26725
634.53787	0.26311
632.60918	0.25865
630.68049	0.26545
628.75181	0.27917
626.82312	0.29041
624.89443	0.29365
622.96575	0.28906
621.03706	0.28409
619.10837	0.28020
617.17969	0.27528
615.25100	0.27087
613.32231	0.27051
611.39363	0.27487
609.46494	0.27840
607.53625	0.27617
605.60757	0.26889
603.67888	0.25895
601.75020	0.25210
599.82151	0.25465
597.89282	0.25969
595.96414	0.25783
594.03545	0.25411
592.10676	0.25771
590.17808	0.26326
588.24939	0.25815
586.32070	0.24881
584.39202	0.24784
582.46333	0.25209
580.53464	0.24969
578.60596	0.23386
576.67727	0.21967
574.74858	0.22384
572.81990	0.23228
570.89121	0.23127
568.96252	0.23201
567.03384	0.23616
565.10515	0.23177
563.17646	0.22175
561.24778	0.21595
559.31909	0.21242
557.39041	0.20597
555.46172	0.19858
553.53303	0.18553
551.60435	0.17317
549.67566	0.17493
547.74697	0.16792
545.81829	0.13840
543.88960	0.11471
541.96091	0.11362
540.03223	0.14235
538.10354	0.20998
536.17485	0.26891
534.24617	0.26333
532.31748	0.20169
530.38879	0.14301
528.46011	0.14379
526.53142	0.21641
524.60273	0.33839
522.67405	0.48403
520.74536	0.59250
518.81667	0.54106
516.88799	0.35222
514.95930	0.17972
513.03062	0.14539
511.10193	0.14673
509.17324	-0.00312
507.24456	-0.19134
505.31587	-0.08863
503.38718	0.35735
501.45850	1.05222
499.52981	2.76350
497.60112	6.58812
495.67244	3.53047
493.74375	1.98685
491.81506	1.56479
489.88638	0.94899
487.95769	0.67041
486.02900	0.61640
484.10032	0.72240
482.17163	0.64136
480.24294	0.11037
478.31426	-0.01481
476.38557	0.43593
474.45688	1.29958
472.52820	1.29958
470.59951	5.69533
468.67083	5.69533
466.74214	0.07960
464.81345	0.78554
462.88477	1.24044
460.95608	1.85813
459.02739	1.56350
457.09871	0.97787
455.17002	0.84384
453.24133	0.49850
451.31265	-0.03396
449.38396	-0.27665
447.45527	-0.26827
445.52659	0.58611
443.59790	-0.82278
441.66921	-1.48749
439.74053	-1.48749
437.81184	2.94103
435.88315	4.75073
433.95447	12.42623
432.02578	2.77895
430.09709	0.22038
428.16841	-0.28219
426.23972	-0.54843
424.31104	-0.94459
422.38235	-2.03320
420.45366	-2.03320
418.52498	-0.30963
416.59629	0.44948
414.66760	1.20076
412.73892	2.02167
410.81023	0.71120
408.88154	0.02434
406.95286	0.04177
405.02417	0.41635
403.09548	1.56965
401.16680	-0.59788
399.23811	-0.59788
