3996.23848	0.32656
3994.30979	0.33116
3992.38110	0.33489
3990.45242	0.33252
3988.52373	0.32657
3986.59504	0.32395
3984.66636	0.32492
3982.73767	0.32710
3980.80898	0.33104
3978.88030	0.33256
3976.95161	0.33005
3975.02292	0.33186
3973.09424	0.33853
3971.16555	0.34086
3969.23687	0.33827
3967.30818	0.33717
3965.37949	0.33622
3963.45081	0.33061
3961.52212	0.32482
3959.59343	0.32391
3957.66475	0.32553
3955.73606	0.32757
3953.80737	0.33037
3951.87869	0.33410
3949.95000	0.33764
3948.02131	0.33723
3946.09263	0.33054
3944.16394	0.32480
3942.23525	0.32725
3940.30657	0.33098
3938.37788	0.32998
3936.44919	0.32854
3934.52051	0.32731
3932.59182	0.32502
3930.66313	0.32659
3928.73445	0.33248
3926.80576	0.33556
3924.87708	0.33509
3922.94839	0.33549
3921.01970	0.33466
3919.09102	0.32970
3917.16233	0.32498
3915.23364	0.32639
3913.30496	0.33395
3911.37627	0.34024
3909.44758	0.33997
3907.51890	0.33504
3905.59021	0.32598
3903.66152	0.31478
3901.73284	0.30841
3899.80415	0.31031
3897.87546	0.31670
3895.94678	0.32247
3894.01809	0.32480
3892.08940	0.32326
3890.16072	0.32130
3888.23203	0.31919
3886.30334	0.31546
3884.37466	0.31500
3882.44597	0.31764
3880.51729	0.31841
3878.58860	0.31835
3876.65991	0.31889
3874.73123	0.31871
3872.80254	0.31493
3870.87385	0.30731
3868.94517	0.30493
3867.01648	0.31143
3865.08779	0.31866
3863.15911	0.32363
3861.23042	0.32759
3859.30173	0.32744
3857.37305	0.31608
3855.44436	0.29396
3853.51567	0.28248
3851.58699	0.29736
3849.65830	0.32089
3847.72961	0.33185
3845.80093	0.33028
3843.87224	0.32500
3841.94355	0.31896
3840.01487	0.30932
3838.08618	0.30083
3836.15750	0.30411
3834.22881	0.31536
3832.30012	0.32278
3830.37144	0.32407
3828.44275	0.32188
3826.51406	0.31857
3824.58538	0.31445
3822.65669	0.30732
3820.72800	0.30143
3818.79932	0.30129
3816.87063	0.30380
3814.94194	0.31054
3813.01326	0.32073
3811.08457	0.32378
3809.15588	0.31739
3807.22720	0.31160
3805.29851	0.31034
3803.36982	0.30673
3801.44114	0.30271
3799.51245	0.30605
3797.58376	0.31376
3795.65508	0.31981
3793.72639	0.32152
3791.79771	0.32104
3789.86902	0.32264
3787.94033	0.32493
3786.01165	0.32667
3784.08296	0.32840
3782.15427	0.32723
3780.22559	0.32359
3778.29690	0.32102
3776.36821	0.31955
3774.43953	0.31911
3772.51084	0.31895
3770.58215	0.31920
3768.65347	0.32292
3766.72478	0.32701
3764.79609	0.32633
3762.86741	0.32142
3760.93872	0.31461
3759.01003	0.31039
3757.08135	0.30998
3755.15266	0.30678
3753.22397	0.29770
3751.29529	0.28996
3749.36660	0.29109
3747.43792	0.29463
3745.50923	0.29314
3743.58054	0.29554
3741.65186	0.30428
3739.72317	0.30712
3737.79448	0.30100
3735.86580	0.29343
3733.93711	0.29113
3732.00842	0.29677
3730.07974	0.30646
3728.15105	0.31072
3726.22236	0.30838
3724.29368	0.30704
3722.36499	0.30736
3720.43630	0.30786
3718.50762	0.31067
3716.57893	0.31172
3714.65024	0.30663
3712.72156	0.30041
3710.79287	0.29871
3708.86418	0.30163
3706.93550	0.30722
3705.00681	0.31181
3703.07812	0.31207
3701.14944	0.31089
3699.22075	0.31297
3697.29207	0.31585
3695.36338	0.31732
3693.43469	0.31701
3691.50601	0.30909
3689.57732	0.29693
3687.64863	0.29445
3685.71995	0.30231
3683.79126	0.30884
3681.86257	0.30787
3679.93389	0.30253
3678.00520	0.29602
3676.07651	0.29101
3674.14783	0.29060
3672.21914	0.28906
3670.29045	0.28700
3668.36177	0.29455
3666.43308	0.30665
3664.50439	0.31334
3662.57571	0.31440
3660.64702	0.31177
3658.71833	0.30692
3656.78965	0.30409
3654.86096	0.30541
3652.93228	0.30294
3651.00359	0.29284
3649.07490	0.28664
3647.14622	0.29254
3645.21753	0.30307
3643.28884	0.30972
3641.36016	0.31280
3639.43147	0.31374
3637.50278	0.31225
3635.57410	0.31030
3633.64541	0.30739
3631.71672	0.29747
3629.78804	0.28431
3627.85935	0.28370
3625.93066	0.29649
3624.00198	0.30676
3622.07329	0.30691
3620.14460	0.30215
3618.21592	0.29809
3616.28723	0.29499
3614.35854	0.29326
3612.42986	0.29477
3610.50117	0.29612
3608.57249	0.29513
3606.64380	0.29895
3604.71511	0.30861
3602.78643	0.31405
3600.85774	0.31276
3598.92905	0.31093
3597.00037	0.30965
3595.07168	0.30810
3593.14299	0.30820
3591.21431	0.30598
3589.28562	0.30012
3587.35693	0.29935
3585.42825	0.30364
3583.49956	0.30644
3581.57087	0.30947
3579.64219	0.31418
3577.71350	0.31551
3575.78481	0.31141
3573.85613	0.30838
3571.92744	0.30902
3569.99875	0.30652
3568.07007	0.30149
3566.14138	0.30183
3564.21270	0.30609
3562.28401	0.30901
3560.35532	0.31064
3558.42664	0.31252
3556.49795	0.31441
3554.56926	0.31388
3552.64058	0.31283
3550.71189	0.31389
3548.78320	0.31020
3546.85452	0.30089
3544.92583	0.29860
3542.99714	0.30561
3541.06846	0.31002
3539.13977	0.30868
3537.21108	0.30692
3535.28240	0.30646
3533.35371	0.30807
3531.42502	0.31048
3529.49634	0.31035
3527.56765	0.30862
3525.63896	0.30713
3523.71028	0.30685
3521.78159	0.30834
3519.85291	0.30983
3517.92422	0.31044
3515.99553	0.30997
3514.06685	0.30886
3512.13816	0.30844
3510.20947	0.30732
3508.28079	0.30577
3506.35210	0.30703
3504.42341	0.31080
3502.49473	0.31539
3500.56604	0.32015
3498.63735	0.32187
3496.70867	0.31889
3494.77998	0.31629
3492.85129	0.31664
3490.92261	0.31565
3488.99392	0.31366
3487.06523	0.31515
3485.13655	0.31833
3483.20786	0.31928
3481.27917	0.31693
3479.35049	0.31486
3477.42180	0.31780
3475.49312	0.32087
3473.56443	0.31926
3471.63574	0.31688
3469.70706	0.31576
3467.77837	0.31689
3465.84968	0.32004
3463.92100	0.32006
3461.99231	0.31667
3460.06362	0.31564
3458.13494	0.31531
3456.20625	0.31120
3454.27756	0.30851
3452.34888	0.31175
3450.42019	0.31619
3448.49150	0.31742
3446.56282	0.31595
3444.63413	0.31275
3442.70544	0.31110
3440.77676	0.31402
3438.84807	0.31615
3436.91938	0.31468
3434.99070	0.31302
3433.06201	0.31103
3431.13333	0.31015
3429.20464	0.31375
3427.27595	0.31803
3425.34727	0.31716
3423.41858	0.31365
3421.48989	0.31233
3419.56121	0.31330
3417.63252	0.31563
3415.70383	0.31791
3413.77515	0.31871
3411.84646	0.31837
3409.91777	0.31755
3407.98909	0.31476
3406.06040	0.31042
3404.13171	0.30966
3402.20303	0.31324
3400.27434	0.31748
3398.34565	0.32056
3396.41697	0.32217
3394.48828	0.32288
3392.55959	0.32170
3390.63091	0.31850
3388.70222	0.31726
3386.77354	0.31970
3384.84485	0.32181
3382.91616	0.31983
3380.98748	0.31512
3379.05879	0.31310
3377.13010	0.31599
3375.20142	0.31818
3373.27273	0.31585
3371.34404	0.31266
3369.41536	0.31181
3367.48667	0.31342
3365.55798	0.31618
3363.62930	0.31870
3361.70061	0.31974
3359.77192	0.31814
3357.84324	0.31587
3355.91455	0.31601
3353.98586	0.31844
3352.05718	0.32096
3350.12849	0.32136
3348.19980	0.31907
3346.27112	0.31694
3344.34243	0.31830
3342.41375	0.32040
3340.48506	0.31931
3338.55637	0.31690
3336.62769	0.31659
3334.69900	0.31995
3332.77031	0.32538
3330.84163	0.32837
3328.91294	0.32636
3326.98425	0.32314
3325.05557	0.32465
3323.12688	0.32802
3321.19819	0.32492
3319.26951	0.31855
3317.34082	0.31815
3315.41213	0.32183
3313.48345	0.32309
3311.55476	0.32073
3309.62607	0.31757
3307.69739	0.31599
3305.76870	0.31442
3303.84001	0.31300
3301.91133	0.31385
3299.98264	0.31615
3298.05396	0.31737
3296.12527	0.31522
3294.19658	0.31231
3292.26790	0.31220
3290.33921	0.31210
3288.41052	0.31241
3286.48184	0.31619
3284.55315	0.32026
3282.62446	0.32425
3280.69578	0.32743
3278.76709	0.32382
3276.83840	0.31693
3274.90972	0.31378
3272.98103	0.31384
3271.05234	0.31449
3269.12366	0.31389
3267.19497	0.31295
3265.26628	0.31392
3263.33760	0.31595
3261.40891	0.31662
3259.48022	0.31583
3257.55154	0.31517
3255.62285	0.31411
3253.69417	0.31267
3251.76548	0.31455
3249.83679	0.31883
3247.90811	0.31944
3245.97942	0.31792
3244.05073	0.31930
3242.12205	0.32080
3240.19336	0.32046
3238.26467	0.32061
3236.33599	0.31954
3234.40730	0.31737
3232.47861	0.31762
3230.54993	0.31886
3228.62124	0.32006
3226.69255	0.32232
3224.76387	0.32202
3222.83518	0.31784
3220.90649	0.31545
3218.97781	0.31597
3217.04912	0.31582
3215.12043	0.31448
3213.19175	0.31189
3211.26306	0.31102
3209.33437	0.31482
3207.40569	0.31759
3205.47700	0.31696
3203.54832	0.31818
3201.61963	0.32116
3199.69094	0.32305
3197.76226	0.32450
3195.83357	0.32531
3193.90488	0.32376
3191.97620	0.31953
3190.04751	0.31501
3188.11882	0.31323
3186.19014	0.31423
3184.26145	0.31712
3182.33276	0.32091
3180.40408	0.32205
3178.47539	0.31972
3176.54670	0.31905
3174.61802	0.32100
3172.68933	0.32049
3170.76064	0.31755
3168.83196	0.31724
3166.90327	0.31955
3164.97458	0.32068
3163.04590	0.31958
3161.11721	0.31729
3159.18853	0.31555
3157.25984	0.31454
3155.33115	0.31355
3153.40247	0.31448
3151.47378	0.31751
3149.54509	0.31925
3147.61641	0.31837
3145.68772	0.31714
3143.75903	0.31732
3141.83035	0.31769
3139.90166	0.31693
3137.97297	0.31630
3136.04429	0.31720
3134.11560	0.31877
3132.18691	0.32005
3130.25823	0.31934
3128.32954	0.31586
3126.40085	0.31436
3124.47217	0.31757
3122.54348	0.31995
3120.61479	0.31849
3118.68611	0.31728
3116.75742	0.31791
3114.82874	0.31860
3112.90005	0.31849
3110.97136	0.31751
3109.04268	0.31697
3107.11399	0.31662
3105.18530	0.31425
3103.25662	0.31089
3101.32793	0.30898
3099.39924	0.30917
3097.47056	0.31114
3095.54187	0.31326
3093.61318	0.31448
3091.68450	0.31543
3089.75581	0.31692
3087.82712	0.31734
3085.89844	0.31528
3083.96975	0.31387
3082.04106	0.31412
3080.11238	0.31414
3078.18369	0.31435
3076.25500	0.31584
3074.32632	0.31871
3072.39763	0.32031
3070.46895	0.31960
3068.54026	0.31842
3066.61157	0.31689
3064.68289	0.31681
3062.75420	0.31924
3060.82551	0.32197
3058.89683	0.32431
3056.96814	0.32547
3055.03945	0.32330
3053.11077	0.31939
3051.18208	0.31842
3049.25339	0.31953
3047.32471	0.31780
3045.39602	0.31430
3043.46733	0.31272
3041.53865	0.31247
3039.60996	0.31262
3037.68127	0.31331
3035.75259	0.31388
3033.82390	0.31459
3031.89521	0.31665
3029.96653	0.31833
3028.03784	0.31684
3026.10916	0.31428
3024.18047	0.31380
3022.25178	0.31427
3020.32310	0.31394
3018.39441	0.31339
3016.46572	0.31329
3014.53704	0.31356
3012.60835	0.31439
3010.67966	0.31568
3008.75098	0.31674
3006.82229	0.31591
3004.89360	0.31406
3002.96492	0.31469
3001.03623	0.31669
2999.10754	0.31811
2997.17886	0.32029
2995.25017	0.32060
2993.32148	0.31737
2991.39280	0.31715
2989.46411	0.32050
2987.53542	0.32101
2985.60674	0.32088
2983.67805	0.32281
2981.74937	0.32345
2979.82068	0.32287
2977.89199	0.32190
2975.96331	0.31984
2974.03462	0.31861
2972.10593	0.31860
2970.17725	0.31789
2968.24856	0.31683
2966.31987	0.31527
2964.39119	0.31268
2962.46250	0.31092
2960.53381	0.31049
2958.60513	0.31181
2956.67644	0.31638
2954.74775	0.32171
2952.81907	0.32420
2950.89038	0.32464
2948.96169	0.32449
2947.03301	0.32352
2945.10432	0.32219
2943.17563	0.32172
2941.24695	0.32127
2939.31826	0.31806
2937.38958	0.31405
2935.46089	0.31416
2933.53220	0.31679
2931.60352	0.31690
2929.67483	0.31443
2927.74614	0.31352
2925.81746	0.31538
2923.88877	0.31715
2921.96008	0.31876
2920.03140	0.32050
2918.10271	0.32100
2916.17402	0.32139
2914.24534	0.32063
2912.31665	0.31798
2910.38796	0.31723
2908.45928	0.31874
2906.53059	0.31924
2904.60190	0.31833
2902.67322	0.31877
2900.74453	0.32068
2898.81584	0.32071
2896.88716	0.31934
2894.95847	0.31896
2893.02979	0.31886
2891.10110	0.31922
2889.17241	0.32068
2887.24373	0.32118
2885.31504	0.31962
2883.38635	0.31762
2881.45767	0.31545
2879.52898	0.31317
2877.60029	0.31416
2875.67161	0.31834
2873.74292	0.32073
2871.81423	0.32000
2869.88555	0.31812
2867.95686	0.31629
2866.02817	0.31397
2864.09949	0.31125
2862.17080	0.31093
2860.24211	0.31433
2858.31343	0.31855
2856.38474	0.32028
2854.45605	0.32033
2852.52737	0.32082
2850.59868	0.32134
2848.67000	0.32143
2846.74131	0.32077
2844.81262	0.31864
2842.88394	0.31687
2840.95525	0.31722
2839.02656	0.31773
2837.09788	0.31840
2835.16919	0.32048
2833.24050	0.32109
2831.31182	0.31830
2829.38313	0.31395
2827.45444	0.31109
2825.52576	0.31141
2823.59707	0.31319
2821.66838	0.31529
2819.73970	0.31923
2817.81101	0.32339
2815.88232	0.32371
2813.95364	0.32126
2812.02495	0.31988
2810.09626	0.31996
2808.16758	0.31947
2806.23889	0.31774
2804.31021	0.31728
2802.38152	0.31877
2800.45283	0.31863
2798.52415	0.31679
2796.59546	0.31717
2794.66677	0.31942
2792.73809	0.32031
2790.80940	0.31941
2788.88071	0.31795
2786.95203	0.31661
2785.02334	0.31594
2783.09465	0.31712
2781.16597	0.31864
2779.23728	0.31716
2777.30859	0.31406
2775.37991	0.31317
2773.45122	0.31527
2771.52253	0.31827
2769.59385	0.31913
2767.66516	0.31841
2765.73647	0.31823
2763.80779	0.31708
2761.87910	0.31513
2759.95042	0.31483
2758.02173	0.31492
2756.09304	0.31399
2754.16436	0.31329
2752.23567	0.31280
2750.30698	0.31197
2748.37830	0.31293
2746.44961	0.31729
2744.52092	0.32132
2742.59224	0.32016
2740.66355	0.31574
2738.73486	0.31440
2736.80618	0.31644
2734.87749	0.31743
2732.94880	0.31763
2731.02012	0.31895
2729.09143	0.32050
2727.16274	0.32107
2725.23406	0.31954
2723.30537	0.31652
2721.37668	0.31508
2719.44800	0.31605
2717.51931	0.31735
2715.59062	0.31776
2713.66194	0.31676
2711.73325	0.31420
2709.80457	0.31260
2707.87588	0.31410
2705.94719	0.31676
2704.01851	0.31744
2702.08982	0.31618
2700.16113	0.31559
2698.23245	0.31613
2696.30376	0.31608
2694.37507	0.31512
2692.44639	0.31395
2690.51770	0.31329
2688.58901	0.31303
2686.66033	0.31312
2684.73164	0.31442
2682.80295	0.31626
2680.87427	0.31721
2678.94558	0.31745
2677.01689	0.31756
2675.08821	0.31701
2673.15952	0.31674
2671.23083	0.31860
2669.30215	0.32026
2667.37346	0.31924
2665.44478	0.31730
2663.51609	0.31646
2661.58740	0.31721
2659.65872	0.31799
2657.73003	0.31714
2655.80134	0.31626
2653.87266	0.31594
2651.94397	0.31355
2650.01528	0.31065
2648.08660	0.31021
2646.15791	0.30969
2644.22922	0.30953
2642.30054	0.31207
2640.37185	0.31400
2638.44316	0.31431
2636.51448	0.31537
2634.58579	0.31689
2632.65710	0.31665
2630.72842	0.31535
2628.79973	0.31644
2626.87104	0.31841
2624.94236	0.31837
2623.01367	0.31812
2621.08499	0.31855
2619.15630	0.31826
2617.22761	0.31739
2615.29893	0.31738
2613.37024	0.31785
2611.44155	0.31673
2609.51287	0.31484
2607.58418	0.31453
2605.65549	0.31540
2603.72681	0.31679
2601.79812	0.31828
2599.86943	0.31881
2597.94075	0.31885
2596.01206	0.31870
2594.08337	0.31800
2592.15469	0.31706
2590.22600	0.31614
2588.29731	0.31570
2586.36863	0.31545
2584.43994	0.31522
2582.51125	0.31651
2580.58257	0.31896
2578.65388	0.31959
2576.72520	0.31850
2574.79651	0.31841
2572.86782	0.31954
2570.93914	0.32074
2569.01045	0.32107
2567.08176	0.31998
2565.15308	0.31828
2563.22439	0.31711
2561.29570	0.31666
2559.36702	0.31697
2557.43833	0.31691
2555.50964	0.31456
2553.58096	0.31262
2551.65227	0.31473
2549.72358	0.31780
2547.79490	0.31789
2545.86621	0.31480
2543.93752	0.31024
2542.00884	0.30906
2540.08015	0.31383
2538.15146	0.31883
2536.22278	0.31936
2534.29409	0.31828
2532.36541	0.31772
2530.43672	0.31774
2528.50803	0.31928
2526.57935	0.32140
2524.65066	0.32224
2522.72197	0.32144
2520.79329	0.31885
2518.86460	0.31531
2516.93591	0.31446
2515.00723	0.31722
2513.07854	0.31908
2511.14985	0.31852
2509.22117	0.31813
2507.29248	0.31798
2505.36379	0.31748
2503.43511	0.31755
2501.50642	0.31721
2499.57773	0.31556
2497.64905	0.31537
2495.72036	0.31770
2493.79167	0.31921
2491.86299	0.31830
2489.93430	0.31716
2488.00562	0.31798
2486.07693	0.31929
2484.14824	0.31764
2482.21956	0.31334
2480.29087	0.31072
2478.36218	0.31166
2476.43350	0.31396
2474.50481	0.31624
2472.57612	0.31825
2470.64744	0.31914
2468.71875	0.31897
2466.79006	0.31875
2464.86138	0.31937
2462.93269	0.32043
2461.00400	0.32045
2459.07532	0.31936
2457.14663	0.31830
2455.21794	0.31825
2453.28926	0.31911
2451.36057	0.31915
2449.43188	0.31768
2447.50320	0.31570
2445.57451	0.31465
2443.64583	0.31505
2441.71714	0.31548
2439.78845	0.31631
2437.85977	0.31859
2435.93108	0.32029
2434.00239	0.31959
2432.07371	0.31796
2430.14502	0.31750
2428.21633	0.31646
2426.28765	0.31354
2424.35896	0.31306
2422.43027	0.31668
2420.50159	0.31952
2418.57290	0.31885
2416.64421	0.31635
2414.71553	0.31392
2412.78684	0.31365
2410.85815	0.31538
2408.92947	0.31540
2407.00078	0.31355
2405.07209	0.31356
2403.14341	0.31656
2401.21472	0.32053
2399.28604	0.32257
2397.35735	0.32161
2395.42866	0.31906
2393.49998	0.31727
2391.57129	0.31790
2389.64260	0.31914
2387.71392	0.31856
2385.78523	0.31613
2383.85654	0.31083
2381.92786	0.30183
2379.99917	0.29059
2378.07048	0.27863
2376.14180	0.26605
2374.21311	0.25259
2372.28442	0.23905
2370.35574	0.22655
2368.42705	0.21541
2366.49836	0.20597
2364.56968	0.19963
2362.64099	0.19683
2360.71230	0.19677
2358.78362	0.20040
2356.85493	0.20916
2354.92625	0.22200
2352.99756	0.23802
2351.06887	0.25603
2349.14019	0.26613
2347.21150	0.25786
2345.28281	0.23887
2343.35413	0.22419
2341.42544	0.21858
2339.49675	0.22031
2337.56807	0.22363
2335.63938	0.22293
2333.71069	0.22210
2331.78201	0.22626
2329.85332	0.23281
2327.92463	0.23812
2325.99595	0.24196
2324.06726	0.24591
2322.13857	0.25108
2320.20989	0.25657
2318.28120	0.26171
2316.35251	0.26673
2314.42383	0.27150
2312.49514	0.27714
2310.56646	0.28444
2308.63777	0.29035
2306.70908	0.29252
2304.78040	0.29436
2302.85171	0.29908
2300.92302	0.30439
2298.99434	0.30803
2297.06565	0.30987
2295.13696	0.31020
2293.20828	0.31013
2291.27959	0.30914
2289.35090	0.30770
2287.42222	0.30852
2285.49353	0.31066
2283.56484	0.31196
2281.63616	0.31214
2279.70747	0.31175
2277.77878	0.31288
2275.85010	0.31586
2273.92141	0.31775
2271.99272	0.31729
2270.06404	0.31553
2268.13535	0.31357
2266.20667	0.31363
2264.27798	0.31619
2262.34929	0.31819
2260.42061	0.31790
2258.49192	0.31738
2256.56323	0.31819
2254.63455	0.31863
2252.70586	0.31712
2250.77717	0.31518
2248.84849	0.31539
2246.91980	0.31685
2244.99111	0.31732
2243.06243	0.31722
2241.13374	0.31688
2239.20505	0.31650
2237.27637	0.31715
2235.34768	0.31827
2233.41899	0.31888
2231.49031	0.31918
2229.56162	0.31930
2227.63293	0.31893
2225.70425	0.31840
2223.77556	0.31830
2221.84687	0.31759
2219.91819	0.31482
2217.98950	0.31236
2216.06082	0.31355
2214.13213	0.31621
2212.20344	0.31719
2210.27476	0.31727
2208.34607	0.31673
2206.41738	0.31595
2204.48870	0.31738
2202.56001	0.31967
2200.63132	0.31946
2198.70264	0.31770
2196.77395	0.31647
2194.84526	0.31594
2192.91658	0.31616
2190.98789	0.31723
2189.05920	0.31817
2187.13052	0.31733
2185.20183	0.31547
2183.27314	0.31521
2181.34446	0.31584
2179.41577	0.31574
2177.48708	0.31620
2175.55840	0.31744
2173.62971	0.31829
2171.70103	0.31862
2169.77234	0.31832
2167.84365	0.31736
2165.91497	0.31641
2163.98628	0.31633
2162.05759	0.31675
2160.12891	0.31681
2158.20022	0.31702
2156.27153	0.31776
2154.34285	0.31825
2152.41416	0.31888
2150.48547	0.31921
2148.55679	0.31804
2146.62810	0.31677
2144.69941	0.31603
2142.77073	0.31450
2140.84204	0.31274
2138.91335	0.31291
2136.98467	0.31503
2135.05598	0.31659
2133.12729	0.31615
2131.19861	0.31454
2129.26992	0.31360
2127.34124	0.31400
2125.41255	0.31433
2123.48386	0.31448
2121.55518	0.31616
2119.62649	0.31795
2117.69780	0.31813
2115.76912	0.31869
2113.84043	0.31881
2111.91174	0.31651
2109.98306	0.31486
2108.05437	0.31597
2106.12568	0.31710
2104.19700	0.31626
2102.26831	0.31504
2100.33962	0.31523
2098.41094	0.31630
2096.48225	0.31614
2094.55356	0.31490
2092.62488	0.31559
2090.69619	0.31839
2088.76750	0.32039
2086.83882	0.31997
2084.91013	0.31825
2082.98145	0.31709
2081.05276	0.31710
2079.12407	0.31760
2077.19539	0.31781
2075.26670	0.31749
2073.33801	0.31671
2071.40933	0.31554
2069.48064	0.31453
2067.55195	0.31500
2065.62327	0.31655
2063.69458	0.31686
2061.76589	0.31635
2059.83721	0.31686
2057.90852	0.31840
2055.97983	0.32016
2054.05115	0.32079
2052.12246	0.32009
2050.19377	0.31967
2048.26509	0.31950
2046.33640	0.31848
2044.40771	0.31755
2042.47903	0.31783
2040.55034	0.31824
2038.62166	0.31736
2036.69297	0.31569
2034.76428	0.31413
2032.83560	0.31347
2030.90691	0.31520
2028.97822	0.31803
2027.04954	0.31852
2025.12085	0.31640
2023.19216	0.31458
2021.26348	0.31502
2019.33479	0.31611
2017.40610	0.31624
2015.47742	0.31622
2013.54873	0.31632
2011.62004	0.31594
2009.69136	0.31509
2007.76267	0.31422
2005.83398	0.31431
2003.90530	0.31584
2001.97661	0.31775
2000.04792	0.31767
1998.11924	0.31545
1996.19055	0.31419
1994.26187	0.31411
1992.33318	0.31389
1990.40449	0.31443
1988.47581	0.31526
1986.54712	0.31535
1984.61843	0.31563
1982.68975	0.31694
1980.76106	0.31855
1978.83237	0.31895
1976.90369	0.31838
1974.97500	0.31834
1973.04631	0.31872
1971.11763	0.31839
1969.18894	0.31763
1967.26025	0.31739
1965.33157	0.31716
1963.40288	0.31545
1961.47419	0.31322
1959.54551	0.31313
1957.61682	0.31473
1955.68813	0.31571
1953.75945	0.31621
1951.83076	0.31681
1949.90208	0.31650
1947.97339	0.31498
1946.04470	0.31272
1944.11602	0.31035
1942.18733	0.31055
1940.25864	0.31428
1938.32996	0.31855
1936.40127	0.32102
1934.47258	0.32041
1932.54390	0.31792
1930.61521	0.31745
1928.68652	0.31860
1926.75784	0.31746
1924.82915	0.31427
1922.90046	0.31244
1920.97178	0.31220
1919.04309	0.31158
1917.11440	0.31190
1915.18572	0.31460
1913.25703	0.31685
1911.32834	0.31635
1909.39966	0.31460
1907.47097	0.31411
1905.54229	0.31523
1903.61360	0.31615
1901.68491	0.31568
1899.75623	0.31533
1897.82754	0.31617
1895.89885	0.31678
1893.97017	0.31710
1892.04148	0.31691
1890.11279	0.31548
1888.18411	0.31505
1886.25542	0.31649
1884.32673	0.31772
1882.39805	0.31711
1880.46936	0.31559
1878.54067	0.31541
1876.61199	0.31619
1874.68330	0.31629
1872.75461	0.31507
1870.82593	0.31207
1868.89724	0.30943
1866.96855	0.31054
1865.03987	0.31348
1863.11118	0.31540
1861.18250	0.31669
1859.25381	0.31722
1857.32512	0.31696
1855.39644	0.31637
1853.46775	0.31659
1851.53906	0.31813
1849.61038	0.31865
1847.68169	0.31550
1845.75300	0.30913
1843.82432	0.30543
1841.89563	0.30823
1839.96694	0.31279
1838.03826	0.31457
1836.10957	0.31465
1834.18088	0.31487
1832.25220	0.31379
1830.32351	0.31196
1828.39482	0.31233
1826.46614	0.31336
1824.53745	0.31418
1822.60876	0.31640
1820.68008	0.31781
1818.75139	0.31637
1816.82271	0.31510
1814.89402	0.31591
1812.96533	0.31562
1811.03665	0.31353
1809.10796	0.31338
1807.17927	0.31559
1805.25059	0.31663
1803.32190	0.31480
1801.39321	0.31262
1799.46453	0.31273
1797.53584	0.31422
1795.60715	0.31316
1793.67847	0.30753
1791.74978	0.30402
1789.82109	0.30872
1787.89241	0.31478
1785.96372	0.31509
1784.03503	0.31338
1782.10635	0.31330
1780.17766	0.31332
1778.24897	0.31265
1776.32029	0.30943
1774.39160	0.30126
1772.46292	0.29452
1770.53423	0.29680
1768.60554	0.30394
1766.67686	0.30965
1764.74817	0.31138
1762.81948	0.30972
1760.89080	0.30973
1758.96211	0.31147
1757.03342	0.31172
1755.10474	0.31050
1753.17605	0.30684
1751.24736	0.30255
1749.31868	0.30229
1747.38999	0.30531
1745.46130	0.30875
1743.53262	0.31128
1741.60393	0.31078
1739.67524	0.30849
1737.74656	0.30458
1735.81787	0.29452
1733.88918	0.28752
1731.96050	0.29512
1730.03181	0.30664
1728.10312	0.31230
1726.17444	0.31411
1724.24575	0.31400
1722.31707	0.31188
1720.38838	0.30382
1718.45969	0.29320
1716.53101	0.29237
1714.60232	0.30226
1712.67363	0.31263
1710.74495	0.31667
1708.81626	0.31347
1706.88757	0.30793
1704.95889	0.30545
1703.03020	0.29944
1701.10151	0.28765
1699.17283	0.28276
1697.24414	0.28533
1695.31545	0.29168
1693.38677	0.30430
1691.45808	0.31388
1689.52939	0.31407
1687.60071	0.30589
1685.67202	0.29213
1683.74333	0.28843
1681.81465	0.30003
1679.88596	0.30975
1677.95728	0.30742
1676.02859	0.30081
1674.09990	0.30095
1672.17122	0.30284
1670.24253	0.30010
1668.31384	0.30201
1666.38516	0.30824
1664.45647	0.30774
1662.52778	0.30551
1660.59910	0.31105
1658.67041	0.31701
1656.74172	0.30785
1654.81304	0.28383
1652.88435	0.27275
1650.95566	0.28729
1649.02698	0.29860
1647.09829	0.29590
1645.16960	0.29798
1643.24092	0.30659
1641.31223	0.31018
1639.38354	0.30657
1637.45486	0.29829
1635.52617	0.29352
1633.59749	0.30025
1631.66880	0.30991
1629.74011	0.31310
1627.81143	0.31286
1625.88274	0.31170
1623.95405	0.31077
1622.02537	0.31219
1620.09668	0.31052
1618.16799	0.30240
1616.23931	0.29956
1614.31062	0.30794
1612.38193	0.31653
1610.45325	0.31837
1608.52456	0.31612
1606.59587	0.31493
1604.66719	0.31666
1602.73850	0.31801
1600.80981	0.31687
1598.88113	0.31553
1596.95244	0.31560
1595.02375	0.31573
1593.09507	0.31538
1591.16638	0.31509
1589.23770	0.31487
1587.30901	0.31486
1585.38032	0.31490
1583.45164	0.31370
1581.52295	0.31147
1579.59426	0.30779
1577.66558	0.30074
1575.73689	0.29845
1573.80820	0.30581
1571.87952	0.30952
1569.95083	0.30598
1568.02214	0.30607
1566.09346	0.31062
1564.16477	0.31170
1562.23608	0.30009
1560.30740	0.27786
1558.37871	0.26917
1556.45002	0.28262
1554.52134	0.29775
1552.59265	0.30512
1550.66396	0.30873
1548.73528	0.30973
1546.80659	0.30676
1544.87791	0.29980
1542.94922	0.28931
1541.02053	0.27909
1539.09185	0.28152
1537.16316	0.29563
1535.23447	0.30363
1533.30579	0.30458
1531.37710	0.30809
1529.44841	0.30927
1527.51973	0.30365
1525.59104	0.29775
1523.66235	0.29250
1521.73367	0.28759
1519.80498	0.28897
1517.87629	0.29544
1515.94761	0.30170
1514.01892	0.30593
1512.09023	0.30620
1510.16155	0.29934
1508.23286	0.28605
1506.30417	0.28039
1504.37549	0.29136
1502.44680	0.30353
1500.51812	0.30390
1498.58943	0.29791
1496.66074	0.29611
1494.73206	0.30107
1492.80337	0.30426
1490.87468	0.30098
1488.94600	0.29839
1487.01731	0.30167
1485.08862	0.30765
1483.15994	0.31239
1481.23125	0.31487
1479.30256	0.31377
1477.37388	0.30741
1475.44519	0.29769
1473.51650	0.29087
1471.58782	0.29457
1469.65913	0.30553
1467.73044	0.31002
1465.80176	0.30626
1463.87307	0.30560
1461.94438	0.30809
1460.01570	0.30140
1458.08701	0.28817
1456.15833	0.28777
1454.22964	0.30201
1452.30095	0.31307
1450.37227	0.31409
1448.44358	0.31153
1446.51489	0.31144
1444.58621	0.31375
1442.65752	0.31557
1440.72883	0.31384
1438.80015	0.30672
1436.87146	0.30160
1434.94277	0.30530
1433.01409	0.31063
1431.08540	0.31193
1429.15671	0.31200
1427.22803	0.31200
1425.29934	0.31174
1423.37065	0.31073
1421.44197	0.30550
1419.51328	0.29924
1417.58459	0.30184
1415.65591	0.31081
1413.72722	0.31630
1411.79854	0.31689
1409.86985	0.31566
1407.94116	0.31426
1406.01248	0.31348
1404.08379	0.31432
1402.15510	0.31485
1400.22642	0.31211
1398.29773	0.30792
1396.36904	0.30510
1394.44036	0.30538
1392.51167	0.30925
1390.58298	0.31141
1388.65430	0.30892
1386.72561	0.30801
1384.79692	0.31117
1382.86824	0.31291
1380.93955	0.31191
1379.01086	0.31194
1377.08218	0.31307
1375.15349	0.31289
1373.22480	0.31258
1371.29612	0.31318
1369.36743	0.31354
1367.43875	0.31405
1365.51006	0.31356
1363.58137	0.31078
1361.65269	0.30807
1359.72400	0.30712
1357.79531	0.30824
1355.86663	0.31149
1353.93794	0.31499
1352.00925	0.31623
1350.08057	0.31464
1348.15188	0.31192
1346.22319	0.31105
1344.29451	0.31240
1342.36582	0.31212
1340.43713	0.30909
1338.50845	0.30776
1336.57976	0.31082
1334.65107	0.31524
1332.72239	0.31749
1330.79370	0.31756
1328.86501	0.31631
1326.93633	0.31470
1325.00764	0.31386
1323.07896	0.31281
1321.15027	0.31128
1319.22158	0.31134
1317.29290	0.31275
1315.36421	0.31313
1313.43552	0.31268
1311.50684	0.31270
1309.57815	0.31334
1307.64946	0.31403
1305.72078	0.31370
1303.79209	0.31280
1301.86340	0.31308
1299.93472	0.31393
1298.00603	0.31350
1296.07734	0.31302
1294.14866	0.31373
1292.21997	0.31393
1290.29128	0.31330
1288.36260	0.31277
1286.43391	0.31257
1284.50522	0.31272
1282.57654	0.31208
1280.64785	0.31103
1278.71917	0.31139
1276.79048	0.31211
1274.86179	0.31219
1272.93311	0.31384
1271.00442	0.31632
1269.07573	0.31673
1267.14705	0.31593
1265.21836	0.31473
1263.28967	0.31233
1261.36099	0.31051
1259.43230	0.31099
1257.50361	0.31179
1255.57493	0.31189
1253.64624	0.31306
1251.71755	0.31413
1249.78887	0.31353
1247.86018	0.31397
1245.93149	0.31693
1244.00281	0.31885
1242.07412	0.31730
1240.14543	0.31490
1238.21675	0.31342
1236.28806	0.31209
1234.35937	0.31214
1232.43069	0.31458
1230.50200	0.31714
1228.57332	0.31750
1226.64463	0.31603
1224.71594	0.31361
1222.78726	0.31126
1220.85857	0.31151
1218.92988	0.31407
1217.00120	0.31509
1215.07251	0.31337
1213.14382	0.31098
1211.21514	0.30964
1209.28645	0.30923
1207.35776	0.30879
1205.42908	0.30939
1203.50039	0.31268
1201.57170	0.31574
1199.64302	0.31500
1197.71433	0.31194
1195.78564	0.31049
1193.85696	0.31229
1191.92827	0.31387
1189.99958	0.31107
1188.07090	0.30653
1186.14221	0.30612
1184.21353	0.31024
1182.28484	0.31431
1180.35615	0.31508
1178.42747	0.31274
1176.49878	0.31097
1174.57009	0.31366
1172.64141	0.31778
1170.71272	0.31844
1168.78403	0.31724
1166.85535	0.31632
1164.92666	0.31531
1162.99797	0.31525
1161.06929	0.31600
1159.14060	0.31487
1157.21191	0.31190
1155.28323	0.31109
1153.35454	0.31351
1151.42585	0.31525
1149.49717	0.31421
1147.56848	0.31249
1145.63979	0.31222
1143.71111	0.31299
1141.78242	0.31306
1139.85374	0.31206
1137.92505	0.31166
1135.99636	0.31424
1134.06768	0.31881
1132.13899	0.32001
1130.21030	0.31681
1128.28162	0.31507
1126.35293	0.31609
1124.42424	0.31560
1122.49556	0.31470
1120.56687	0.31650
1118.63818	0.31890
1116.70950	0.32027
1114.78081	0.32095
1112.85212	0.31979
1110.92344	0.31726
1108.99475	0.31524
1107.06606	0.31404
1105.13738	0.31373
1103.20869	0.31379
1101.28000	0.31410
1099.35132	0.31463
1097.42263	0.31245
1095.49395	0.30872
1093.56526	0.30891
1091.63657	0.31194
1089.70789	0.31502
1087.77920	0.31811
1085.85051	0.31782
1083.92183	0.31478
1081.99314	0.31456
1080.06445	0.31510
1078.13577	0.31308
1076.20708	0.31208
1074.27839	0.31513
1072.34971	0.31906
1070.42102	0.31917
1068.49233	0.31740
1066.56365	0.31639
1064.63496	0.31499
1062.70627	0.31371
1060.77759	0.31154
1058.84890	0.30804
1056.92021	0.30647
1054.99153	0.30753
1053.06284	0.31039
1051.13416	0.31334
1049.20547	0.31347
1047.27678	0.31240
1045.34810	0.31343
1043.41941	0.31459
1041.49072	0.31387
1039.56204	0.31405
1037.63335	0.31481
1035.70466	0.31277
1033.77598	0.31082
1031.84729	0.31295
1029.91860	0.31644
1027.98992	0.31831
1026.06123	0.31806
1024.13254	0.31499
1022.20386	0.31134
1020.27517	0.30939
1018.34648	0.30739
1016.41780	0.30603
1014.48911	0.30837
1012.56042	0.31234
1010.63174	0.31484
1008.70305	0.31708
1006.77437	0.31854
1004.84568	0.31683
1002.91699	0.31437
1000.98831	0.31407
999.05962	0.31471
997.13093	0.31458
995.20225	0.31256
993.27356	0.30915
991.34487	0.30718
989.41619	0.30690
987.48750	0.30586
985.55881	0.30396
983.63013	0.30358
981.70144	0.30590
979.77275	0.30923
977.84407	0.31133
975.91538	0.31142
973.98669	0.31005
972.05801	0.30807
970.12932	0.30633
968.20063	0.30683
966.27195	0.30911
964.34326	0.30994
962.41458	0.30927
960.48589	0.30887
958.55720	0.30945
956.62852	0.30999
954.69983	0.30792
952.77114	0.30473
950.84246	0.30612
948.91377	0.31167
946.98508	0.31438
945.05640	0.31169
943.12771	0.30806
941.19902	0.30784
939.27034	0.30892
937.34165	0.30717
935.41296	0.30346
933.48428	0.30042
931.55559	0.29992
929.62690	0.30131
927.69822	0.30180
925.76953	0.30277
923.84084	0.30672
921.91216	0.30954
919.98347	0.30825
918.05479	0.30659
916.12610	0.30603
914.19741	0.30552
912.26873	0.30598
910.34004	0.30778
908.41135	0.30866
906.48267	0.30638
904.55398	0.30233
902.62529	0.29994
900.69661	0.30230
898.76792	0.30777
896.83923	0.31020
894.91055	0.30863
892.98186	0.30583
891.05317	0.30338
889.12449	0.30195
887.19580	0.30169
885.26711	0.30323
883.33843	0.30508
881.40974	0.30598
879.48105	0.30654
877.55237	0.30596
875.62368	0.30475
873.69500	0.30423
871.76631	0.30346
869.83762	0.30180
867.90894	0.30238
865.98025	0.30626
864.05156	0.30692
862.12288	0.30344
860.19419	0.30196
858.26550	0.30234
856.33682	0.30352
854.40813	0.30763
852.47944	0.31141
850.55076	0.31064
848.62207	0.30724
846.69338	0.30310
844.76470	0.30003
842.83601	0.30047
840.90732	0.30304
838.97864	0.30674
837.04995	0.31134
835.12126	0.31279
833.19258	0.30824
831.26389	0.30172
829.33521	0.29708
827.40652	0.29606
825.47783	0.29968
823.54915	0.30236
821.62046	0.30179
819.69177	0.30280
817.76309	0.30426
815.83440	0.30346
813.90571	0.30240
811.97703	0.30159
810.04834	0.29934
808.11965	0.29725
806.19097	0.29852
804.26228	0.30205
802.33359	0.30337
800.40491	0.30296
798.47622	0.30349
796.54753	0.30233
794.61885	0.29920
792.69016	0.29675
790.76147	0.29534
788.83279	0.29315
786.90410	0.28946
784.97542	0.28794
783.04673	0.28985
781.11804	0.29262
779.18936	0.29486
777.26067	0.29480
775.33198	0.29048
773.40330	0.28528
771.47461	0.28419
769.54592	0.28600
767.61724	0.28723
765.68855	0.28597
763.75986	0.28353
761.83118	0.28365
759.90249	0.28663
757.97380	0.28818
756.04512	0.28299
754.11643	0.27345
752.18774	0.26888
750.25906	0.26933
748.33037	0.26732
746.40168	0.26511
744.47300	0.26873
742.54431	0.27358
740.61562	0.27322
738.68694	0.26804
736.75825	0.26219
734.82957	0.26094
732.90088	0.26382
730.97219	0.26643
729.04351	0.26587
727.11482	0.25933
725.18613	0.25449
723.25745	0.26060
721.32876	0.26858
719.40007	0.27122
717.47139	0.27360
715.54270	0.27345
713.61401	0.26547
711.68533	0.25557
709.75664	0.25164
707.82795	0.25454
705.89927	0.26179
703.97058	0.26633
702.04189	0.26286
700.11321	0.25636
698.18452	0.25378
696.25583	0.25555
694.32715	0.25683
692.39846	0.25446
690.46978	0.25163
688.54109	0.25377
686.61240	0.25990
684.68372	0.26087
682.75503	0.25418
680.82634	0.24951
678.89766	0.24871
676.96897	0.24574
675.04028	0.24490
673.11160	0.24826
671.18291	0.24140
669.25422	0.22099
667.32554	0.21188
665.39685	0.22470
663.46816	0.24118
661.53948	0.24763
659.61079	0.24247
657.68210	0.23647
655.75342	0.23860
653.82473	0.24306
651.89604	0.24685
649.96736	0.25044
648.03867	0.25020
646.10999	0.24523
644.18130	0.24341
642.25261	0.25029
640.32393	0.25344
638.39524	0.24364
636.46655	0.23406
634.53787	0.23636
632.60918	0.24666
630.68049	0.25419
628.75181	0.25656
626.82312	0.26098
624.89443	0.26834
622.96575	0.27255
621.03706	0.26905
619.10837	0.26255
617.17969	0.25755
615.25100	0.25111
613.32231	0.24670
611.39363	0.24560
609.46494	0.24512
607.53625	0.24819
605.60757	0.25676
603.67888	0.26826
601.75020	0.27206
599.82151	0.26627
597.89282	0.26050
595.96414	0.25208
594.03545	0.23654
592.10676	0.22719
590.17808	0.23229
588.24939	0.24396
586.32070	0.25531
584.39202	0.25370
582.46333	0.23322
580.53464	0.21640
578.60596	0.21719
576.67727	0.21989
574.74858	0.21783
572.81990	0.22963
570.89121	0.25392
568.96252	0.26439
567.03384	0.24471
565.10515	0.19620
563.17646	0.15382
561.24778	0.15761
559.31909	0.18855
557.39041	0.20294
555.46172	0.21080
553.53303	0.23570
551.60435	0.25313
549.67566	0.23969
547.74697	0.20230
545.81829	0.15910
543.88960	0.12987
541.96091	0.12167
540.03223	0.13431
538.10354	0.15465
536.17485	0.14468
534.24617	0.10480
532.31748	0.09408
530.38879	0.13125
528.46011	0.12884
526.53142	0.05426
524.60273	0.00369
522.67405	-0.00612
520.74536	-0.00177
518.81667	0.03590
516.88799	0.19038
514.95930	0.44292
513.03062	0.52939
511.10193	0.33264
509.17324	0.19895
507.24456	0.22883
505.31587	0.20346
503.38718	-0.00831
501.45850	-0.24472
499.52981	-0.12529
497.60112	2.22249
495.67244	3.11724
493.74375	2.54393
491.81506	2.32500
489.88638	1.83652
487.95769	1.39748
486.02900	0.97959
484.10032	0.69249
482.17163	0.54184
480.24294	0.43405
478.31426	0.39925
476.38557	0.36123
474.45688	0.57981
472.52820	0.57981
470.59951	-4.40880
468.67083	-4.40880
466.74214	-2.54297
464.81345	-0.78212
462.88477	0.26600
460.95608	1.27202
459.02739	0.60205
457.09871	-0.14480
455.17002	-0.15188
453.24133	-0.06094
451.31265	0.00413
449.38396	0.10744
447.45527	0.38303
445.52659	5.29372
443.59790	-1.20431
441.66921	-0.65806
439.74053	-0.65806
437.81184	0.49147
435.88315	0.55211
433.95447	4.40267
432.02578	2.09787
430.09709	0.48696
428.16841	0.09081
426.23972	0.15271
424.31104	0.64335
422.38235	3.06979
420.45366	3.06979
418.52498	4.93409
416.59629	0.74084
414.66760	-0.01861
412.73892	-0.63431
410.81023	-0.26776
408.88154	-0.06575
406.95286	-0.28288
405.02417	-0.85549
403.09548	-2.42469
401.16680	0.09189
399.23811	0.09189
