4000.04268	0.81258
3998.11402	0.81255
3996.18536	0.81261
3994.25670	0.81262
3992.32804	0.81256
3990.39938	0.81249
3988.47072	0.81250
3986.54206	0.81264
3984.61340	0.81272
3982.68474	0.81261
3980.75607	0.81248
3978.82741	0.81253
3976.89875	0.81264
3974.97009	0.81262
3973.04143	0.81250
3971.11277	0.81246
3969.18411	0.81245
3967.25545	0.81239
3965.32679	0.81235
3963.39813	0.81231
3961.46947	0.81224
3959.54080	0.81221
3957.61214	0.81226
3955.68348	0.81235
3953.75482	0.81247
3951.82616	0.81259
3949.89750	0.81258
3947.96884	0.81241
3946.04018	0.81229
3944.11152	0.81230
3942.18286	0.81221
3940.25420	0.81202
3938.32553	0.81202
3936.39687	0.81227
3934.46821	0.81259
3932.53955	0.81268
3930.61089	0.81248
3928.68223	0.81229
3926.75357	0.81234
3924.82491	0.81238
3922.89625	0.81225
3920.96759	0.81221
3919.03893	0.81225
3917.11026	0.81208
3915.18160	0.81176
3913.25294	0.81152
3911.32428	0.81141
3909.39562	0.81153
3907.46696	0.81196
3905.53830	0.81240
3903.60964	0.81248
3901.68098	0.81229
3899.75232	0.81200
3897.82366	0.81171
3895.89500	0.81175
3893.96633	0.81211
3892.03767	0.81220
3890.10901	0.81188
3888.18035	0.81187
3886.25169	0.81220
3884.32303	0.81241
3882.39437	0.81243
3880.46571	0.81208
3878.53705	0.81163
3876.60839	0.81173
3874.67973	0.81220
3872.75106	0.81237
3870.82240	0.81207
3868.89374	0.81174
3866.96508	0.81189
3865.03642	0.81215
3863.10776	0.81193
3861.17910	0.81152
3859.25044	0.81148
3857.32178	0.81152
3855.39312	0.81105
3853.46446	0.81071
3851.53579	0.81107
3849.60713	0.81123
3847.67847	0.81137
3845.74981	0.81176
3843.82115	0.81215
3841.89249	0.81238
3839.96383	0.81246
3838.03517	0.81246
3836.10651	0.81237
3834.17785	0.81193
3832.24919	0.81130
3830.32052	0.81101
3828.39186	0.81110
3826.46320	0.81123
3824.53454	0.81144
3822.60588	0.81197
3820.67722	0.81225
3818.74856	0.81191
3816.81990	0.81124
3814.89124	0.81053
3812.96258	0.81014
3811.03392	0.81016
3809.10526	0.81042
3807.17659	0.81063
3805.24793	0.81088
3803.31927	0.81117
3801.39061	0.81109
3799.46195	0.81093
3797.53329	0.81080
3795.60463	0.81035
3793.67597	0.80989
3791.74731	0.80975
3789.81865	0.80976
3787.88999	0.80984
3785.96132	0.80993
3784.03266	0.80995
3782.10400	0.81026
3780.17534	0.81065
3778.24668	0.81027
3776.31802	0.80957
3774.38936	0.80943
3772.46070	0.80977
3770.53204	0.81007
3768.60338	0.81008
3766.67472	0.80992
3764.74605	0.80968
3762.81739	0.80974
3760.88873	0.81023
3758.96007	0.81056
3757.03141	0.81046
3755.10275	0.81029
3753.17409	0.81016
3751.24543	0.81000
3749.31677	0.81002
3747.38811	0.80981
3745.45945	0.80910
3743.53078	0.80933
3741.60212	0.81077
3739.67346	0.81207
3737.74480	0.81270
3735.81614	0.81246
3733.88748	0.81156
3731.95882	0.81062
3730.03016	0.81014
3728.10150	0.81008
3726.17284	0.81024
3724.24418	0.81039
3722.31552	0.81028
3720.38685	0.80987
3718.45819	0.80944
3716.52953	0.80926
3714.60087	0.80944
3712.67221	0.80981
3710.74355	0.80985
3708.81489	0.80944
3706.88623	0.80905
3704.95757	0.80902
3703.02891	0.80914
3701.10025	0.80901
3699.17158	0.80888
3697.24292	0.80905
3695.31426	0.80936
3693.38560	0.80991
3691.45694	0.81092
3689.52828	0.81143
3687.59962	0.81044
3685.67096	0.80919
3683.74230	0.80857
3681.81364	0.80855
3679.88498	0.80891
3677.95631	0.80926
3676.02765	0.80934
3674.09899	0.80913
3672.17033	0.80879
3670.24167	0.80831
3668.31301	0.80776
3666.38435	0.80736
3664.45569	0.80730
3662.52703	0.80778
3660.59837	0.80837
3658.66971	0.80826
3656.74104	0.80742
3654.81238	0.80709
3652.88372	0.80792
3650.95506	0.80886
3649.02640	0.80817
3647.09774	0.80653
3645.16908	0.80538
3643.24042	0.80469
3641.31176	0.80420
3639.38310	0.80378
3637.45444	0.80350
3635.52578	0.80330
3633.59711	0.80295
3631.66845	0.80228
3629.73979	0.80133
3627.81113	0.80071
3625.88247	0.80057
3623.95381	0.80056
3622.02515	0.80057
3620.09649	0.80021
3618.16783	0.79952
3616.23917	0.79903
3614.31051	0.79841
3612.38184	0.79742
3610.45318	0.79669
3608.52452	0.79652
3606.59586	0.79662
3604.66720	0.79675
3602.73854	0.79699
3600.80988	0.79722
3598.88122	0.79702
3596.95256	0.79653
3595.02390	0.79632
3593.09524	0.79633
3591.16657	0.79637
3589.23791	0.79699
3587.30925	0.79825
3585.38059	0.79884
3583.45193	0.79846
3581.52327	0.79783
3579.59461	0.79733
3577.66595	0.79714
3575.73729	0.79725
3573.80863	0.79763
3571.87997	0.79845
3569.95130	0.79948
3568.02264	0.80002
3566.09398	0.79996
3564.16532	0.80004
3562.23666	0.80028
3560.30800	0.80016
3558.37934	0.79976
3556.45068	0.79964
3554.52202	0.80005
3552.59336	0.80055
3550.66470	0.80071
3548.73604	0.80125
3546.80737	0.80245
3544.87871	0.80289
3542.95005	0.80186
3541.02139	0.80050
3539.09273	0.80003
3537.16407	0.80014
3535.23541	0.79965
3533.30675	0.79874
3531.37809	0.79830
3529.44943	0.79831
3527.52077	0.79860
3525.59210	0.79918
3523.66344	0.79922
3521.73478	0.79820
3519.80612	0.79714
3517.87746	0.79682
3515.94880	0.79714
3514.02014	0.79743
3512.09148	0.79712
3510.16282	0.79653
3508.23416	0.79640
3506.30550	0.79716
3504.37683	0.79852
3502.44817	0.79911
3500.51951	0.79876
3498.59085	0.79865
3496.66219	0.79871
3494.73353	0.79847
3492.80487	0.79821
3490.87621	0.79830
3488.94755	0.79878
3487.01889	0.79910
3485.09023	0.79895
3483.16156	0.79914
3481.23290	0.79994
3479.30424	0.80019
3477.37558	0.79961
3475.44692	0.79916
3473.51826	0.79952
3471.58960	0.80090
3469.66094	0.80258
3467.73228	0.80293
3465.80362	0.80176
3463.87496	0.80065
3461.94630	0.80052
3460.01763	0.80055
3458.08897	0.80005
3456.16031	0.79958
3454.23165	0.79948
3452.30299	0.79951
3450.37433	0.79974
3448.44567	0.80014
3446.51701	0.80029
3444.58835	0.80010
3442.65969	0.79999
3440.73103	0.80050
3438.80236	0.80190
3436.87370	0.80325
3434.94504	0.80338
3433.01638	0.80275
3431.08772	0.80239
3429.15906	0.80201
3427.23040	0.80114
3425.30174	0.80031
3423.37308	0.80011
3421.44442	0.80024
3419.51576	0.80016
3417.58709	0.80007
3415.65843	0.80061
3413.72977	0.80140
3411.80111	0.80176
3409.87245	0.80164
3407.94379	0.80111
3406.01513	0.80080
3404.08647	0.80194
3402.15781	0.80390
3400.22915	0.80424
3398.30049	0.80269
3396.37182	0.80165
3394.44316	0.80241
3392.51450	0.80340
3390.58584	0.80265
3388.65718	0.80083
3386.72852	0.79969
3384.79986	0.79948
3382.87120	0.79974
3380.94254	0.80015
3379.01388	0.80033
3377.08522	0.80020
3375.15656	0.80006
3373.22789	0.80080
3371.29923	0.80269
3369.37057	0.80415
3367.44191	0.80369
3365.51325	0.80189
3363.58459	0.80053
3361.65593	0.80018
3359.72727	0.79995
3357.79861	0.79943
3355.86995	0.79923
3353.94129	0.80001
3352.01262	0.80127
3350.08396	0.80135
3348.15530	0.80012
3346.22664	0.79945
3344.29798	0.79984
3342.36932	0.80050
3340.44066	0.80119
3338.51200	0.80134
3336.58334	0.80030
3334.65468	0.79893
3332.72602	0.79820
3330.79735	0.79811
3328.86869	0.79872
3326.94003	0.79974
3325.01137	0.79990
3323.08271	0.79895
3321.15405	0.79804
3319.22539	0.79765
3317.29673	0.79749
3315.36807	0.79746
3313.43941	0.79782
3311.51075	0.79910
3309.58208	0.80118
3307.65342	0.80286
3305.72476	0.80277
3303.79610	0.80076
3301.86744	0.79846
3299.93878	0.79768
3298.01012	0.79842
3296.08146	0.79946
3294.15280	0.79997
3292.22414	0.79950
3290.29548	0.79798
3288.36682	0.79648
3286.43815	0.79584
3284.50949	0.79565
3282.58083	0.79552
3280.65217	0.79552
3278.72351	0.79587
3276.79485	0.79670
3274.86619	0.79775
3272.93753	0.79888
3271.00887	0.79921
3269.08021	0.79778
3267.15155	0.79581
3265.22288	0.79483
3263.29422	0.79466
3261.36556	0.79476
3259.43690	0.79523
3257.50824	0.79603
3255.57958	0.79630
3253.65092	0.79573
3251.72226	0.79546
3249.79360	0.79638
3247.86494	0.79753
3245.93628	0.79741
3244.00761	0.79636
3242.07895	0.79575
3240.15029	0.79577
3238.22163	0.79629
3236.29297	0.79774
3234.36431	0.79928
3232.43565	0.79911
3230.50699	0.79767
3228.57833	0.79673
3226.64967	0.79659
3224.72101	0.79670
3222.79234	0.79694
3220.86368	0.79733
3218.93502	0.79760
3217.00636	0.79762
3215.07770	0.79761
3213.14904	0.79759
3211.22038	0.79763
3209.29172	0.79791
3207.36306	0.79823
3205.43440	0.79836
3203.50574	0.79844
3201.57708	0.79855
3199.64841	0.79867
3197.71975	0.79887
3195.79109	0.79910
3193.86243	0.79933
3191.93377	0.79961
3190.00511	0.79984
3188.07645	0.79991
3186.14779	0.79994
3184.21913	0.80011
3182.29047	0.80040
3180.36181	0.80072
3178.43314	0.80097
3176.50448	0.80115
3174.57582	0.80132
3172.64716	0.80149
3170.71850	0.80167
3168.78984	0.80188
3166.86118	0.80208
3164.93252	0.80227
3163.00386	0.80253
3161.07520	0.80282
3159.14654	0.80315
3157.21787	0.80382
3155.28921	0.80515
3153.36055	0.80644
3151.43189	0.80636
3149.50323	0.80524
3147.57457	0.80449
3145.64591	0.80441
3143.71725	0.80488
3141.78859	0.80608
3139.85993	0.80717
3137.93127	0.80700
3136.00260	0.80611
3134.07394	0.80586
3132.14528	0.80644
3130.21662	0.80701
3128.28796	0.80701
3126.35930	0.80693
3124.43064	0.80769
3122.50198	0.80952
3120.57332	0.81149
3118.64466	0.81255
3116.71600	0.81247
3114.78734	0.81137
3112.85867	0.81023
3110.93001	0.81029
3109.00135	0.81079
3107.07269	0.81046
3105.14403	0.80993
3103.21537	0.81020
3101.28671	0.81088
3099.35805	0.81102
3097.42939	0.81062
3095.50073	0.81044
3093.57207	0.81100
3091.64340	0.81202
3089.71474	0.81268
3087.78608	0.81302
3085.85742	0.81367
3083.92876	0.81437
3082.00010	0.81492
3080.07144	0.81532
3078.14278	0.81497
3076.21412	0.81372
3074.28546	0.81261
3072.35680	0.81239
3070.42813	0.81303
3068.49947	0.81394
3066.57081	0.81414
3064.64215	0.81352
3062.71349	0.81284
3060.78483	0.81260
3058.85617	0.81289
3056.92751	0.81337
3054.99885	0.81364
3053.07019	0.81389
3051.14153	0.81404
3049.21286	0.81388
3047.28420	0.81405
3045.35554	0.81479
3043.42688	0.81535
3041.49822	0.81504
3039.56956	0.81412
3037.64090	0.81380
3035.71224	0.81435
3033.78358	0.81459
3031.85492	0.81401
3029.92626	0.81326
3027.99760	0.81289
3026.06893	0.81305
3024.14027	0.81320
3022.21161	0.81322
3020.28295	0.81357
3018.35429	0.81431
3016.42563	0.81522
3014.49697	0.81595
3012.56831	0.81587
3010.63965	0.81473
3008.71099	0.81331
3006.78233	0.81256
3004.85366	0.81247
3002.92500	0.81253
3000.99634	0.81282
2999.06768	0.81339
2997.13902	0.81372
2995.21036	0.81392
2993.28170	0.81419
2991.35304	0.81389
2989.42438	0.81306
2987.49572	0.81257
2985.56706	0.81273
2983.63839	0.81348
2981.70973	0.81432
2979.78107	0.81450
2977.85241	0.81413
2975.92375	0.81388
2973.99509	0.81361
2972.06643	0.81301
2970.13777	0.81246
2968.20911	0.81216
2966.28045	0.81210
2964.35179	0.81219
2962.42313	0.81212
2960.49446	0.81179
2958.56580	0.81152
2956.63714	0.81169
2954.70848	0.81239
2952.77982	0.81296
2950.85116	0.81302
2948.92250	0.81327
2946.99384	0.81387
2945.06518	0.81396
2943.13652	0.81311
2941.20786	0.81189
2939.27919	0.81105
2937.35053	0.81065
2935.42187	0.81040
2933.49321	0.81041
2931.56455	0.81063
2929.63589	0.81032
2927.70723	0.80916
2925.77857	0.80788
2923.84991	0.80702
2921.92125	0.80663
2919.99259	0.80682
2918.06392	0.80757
2916.13526	0.80877
2914.20660	0.80992
2912.27794	0.81036
2910.34928	0.81019
2908.42062	0.81006
2906.49196	0.81026
2904.56330	0.81055
2902.63464	0.81067
2900.70598	0.81077
2898.77732	0.81119
2896.84865	0.81169
2894.91999	0.81173
2892.99133	0.81143
2891.06267	0.81125
2889.13401	0.81122
2887.20535	0.81126
2885.27669	0.81138
2883.34803	0.81152
2881.41937	0.81160
2879.49071	0.81168
2877.56205	0.81210
2875.63339	0.81304
2873.70472	0.81362
2871.77606	0.81306
2869.84740	0.81211
2867.91874	0.81172
2865.99008	0.81164
2864.06142	0.81158
2862.13276	0.81162
2860.20410	0.81146
2858.27544	0.81082
2856.34678	0.80997
2854.41812	0.80919
2852.48945	0.80858
2850.56079	0.80852
2848.63213	0.80910
2846.70347	0.80978
2844.77481	0.81032
2842.84615	0.81113
2840.91749	0.81239
2838.98883	0.81331
2837.06017	0.81331
2835.13151	0.81289
2833.20285	0.81252
2831.27418	0.81223
2829.34552	0.81207
2827.41686	0.81207
2825.48820	0.81215
2823.55954	0.81220
2821.63088	0.81218
2819.70222	0.81219
2817.77356	0.81222
2815.84490	0.81225
2813.91624	0.81242
2811.98758	0.81274
2810.05891	0.81285
2808.13025	0.81257
2806.20159	0.81227
2804.27293	0.81221
2802.34427	0.81243
2800.41561	0.81290
2798.48695	0.81324
2796.55829	0.81313
2794.62963	0.81289
2792.70097	0.81298
2790.77231	0.81326
2788.84365	0.81320
2786.91498	0.81270
2784.98632	0.81228
2783.05766	0.81218
2781.12900	0.81222
2779.20034	0.81237
2777.27168	0.81278
2775.34302	0.81315
2773.41436	0.81305
2771.48570	0.81273
2769.55704	0.81257
2767.62838	0.81252
2765.69971	0.81244
2763.77105	0.81233
2761.84239	0.81226
2759.91373	0.81223
2757.98507	0.81225
2756.05641	0.81225
2754.12775	0.81226
2752.19909	0.81242
2750.27043	0.81273
2748.34177	0.81288
2746.41311	0.81265
2744.48444	0.81231
2742.55578	0.81215
2740.62712	0.81214
2738.69846	0.81218
2736.76980	0.81218
2734.84114	0.81207
2732.91248	0.81196
2730.98382	0.81200
2729.05516	0.81230
2727.12650	0.81264
2725.19784	0.81270
2723.26917	0.81250
2721.34051	0.81226
2719.41185	0.81207
2717.48319	0.81198
2715.55453	0.81192
2713.62587	0.81189
2711.69721	0.81192
2709.76855	0.81196
2707.83989	0.81195
2705.91123	0.81190
2703.98257	0.81186
2702.05391	0.81185
2700.12524	0.81185
2698.19658	0.81181
2696.26792	0.81175
2694.33926	0.81171
2692.41060	0.81170
2690.48194	0.81168
2688.55328	0.81165
2686.62462	0.81162
2684.69596	0.81171
2682.76730	0.81200
2680.83864	0.81230
2678.90997	0.81236
2676.98131	0.81222
2675.05265	0.81208
2673.12399	0.81193
2671.19533	0.81173
2669.26667	0.81158
2667.33801	0.81152
2665.40935	0.81150
2663.48069	0.81153
2661.55203	0.81160
2659.62337	0.81163
2657.69470	0.81159
2655.76604	0.81151
2653.83738	0.81146
2651.90872	0.81143
2649.98006	0.81147
2648.05140	0.81154
2646.12274	0.81158
2644.19408	0.81156
2642.26542	0.81156
2640.33676	0.81162
2638.40810	0.81164
2636.47943	0.81156
2634.55077	0.81149
2632.62211	0.81149
2630.69345	0.81150
2628.76479	0.81150
2626.83613	0.81148
2624.90747	0.81142
2622.97881	0.81138
2621.05015	0.81140
2619.12149	0.81146
2617.19283	0.81150
2615.26417	0.81145
2613.33550	0.81135
2611.40684	0.81125
2609.47818	0.81121
2607.54952	0.81125
2605.62086	0.81129
2603.69220	0.81127
2601.76354	0.81124
2599.83488	0.81125
2597.90622	0.81129
2595.97756	0.81132
2594.04890	0.81131
2592.12023	0.81129
2590.19157	0.81129
2588.26291	0.81125
2586.33425	0.81122
2584.40559	0.81124
2582.47693	0.81129
2580.54827	0.81131
2578.61961	0.81129
2576.69095	0.81127
2574.76229	0.81125
2572.83363	0.81126
2570.90496	0.81127
2568.97630	0.81130
2567.04764	0.81133
2565.11898	0.81134
2563.19032	0.81135
2561.26166	0.81135
2559.33300	0.81132
2557.40434	0.81131
2555.47568	0.81131
2553.54702	0.81127
2551.61836	0.81125
2549.68969	0.81128
2547.76103	0.81134
2545.83237	0.81141
2543.90371	0.81144
2541.97505	0.81146
2540.04639	0.81149
2538.11773	0.81153
2536.18907	0.81154
2534.26041	0.81152
2532.33175	0.81148
2530.40309	0.81147
2528.47443	0.81152
2526.54576	0.81157
2524.61710	0.81161
2522.68844	0.81164
2520.75978	0.81163
2518.83112	0.81163
2516.90246	0.81161
2514.97380	0.81154
2513.04514	0.81151
2511.11648	0.81151
2509.18782	0.81151
2507.25916	0.81149
2505.33049	0.81147
2503.40183	0.81146
2501.47317	0.81148
2499.54451	0.81149
2497.61585	0.81151
2495.68719	0.81154
2493.75853	0.81153
2491.82987	0.81150
2489.90121	0.81153
2487.97255	0.81157
2486.04389	0.81156
2484.11522	0.81156
2482.18656	0.81160
2480.25790	0.81164
2478.32924	0.81169
2476.40058	0.81173
2474.47192	0.81172
2472.54326	0.81167
2470.61460	0.81163
2468.68594	0.81163
2466.75728	0.81163
2464.82862	0.81161
2462.89995	0.81159
2460.97129	0.81161
2459.04263	0.81165
2457.11397	0.81171
2455.18531	0.81174
2453.25665	0.81172
2451.32799	0.81169
2449.39933	0.81172
2447.47067	0.81177
2445.54201	0.81179
2443.61335	0.81175
2441.68469	0.81169
2439.75602	0.81166
2437.82736	0.81169
2435.89870	0.81174
2433.97004	0.81174
2432.04138	0.81171
2430.11272	0.81170
2428.18406	0.81173
2426.25540	0.81176
2424.32674	0.81174
2422.39808	0.81172
2420.46942	0.81174
2418.54075	0.81180
2416.61209	0.81183
2414.68343	0.81179
2412.75477	0.81176
2410.82611	0.81177
2408.89745	0.81180
2406.96879	0.81180
2405.04013	0.81182
2403.11147	0.81186
2401.18281	0.81189
2399.25415	0.81190
2397.32548	0.81191
2395.39682	0.81191
2393.46816	0.81191
2391.53950	0.81191
2389.61084	0.81194
2387.68218	0.81200
2385.75352	0.81213
2383.82486	0.81249
2381.89620	0.81310
2379.96754	0.81378
2378.03888	0.81435
2376.11021	0.81482
2374.18155	0.81523
2372.25289	0.81552
2370.32423	0.81563
2368.39557	0.81571
2366.46691	0.81586
2364.53825	0.81587
2362.60959	0.81568
2360.68093	0.81568
2358.75227	0.81607
2356.82361	0.81654
2354.89495	0.81685
2352.96628	0.81697
2351.03762	0.81699
2349.10896	0.81705
2347.18030	0.81724
2345.25164	0.81741
2343.32298	0.81738
2341.39432	0.81722
2339.46566	0.81709
2337.53700	0.81704
2335.60834	0.81699
2333.67968	0.81695
2331.75101	0.81690
2329.82235	0.81673
2327.89369	0.81641
2325.96503	0.81602
2324.03637	0.81576
2322.10771	0.81559
2320.17905	0.81529
2318.25039	0.81490
2316.32173	0.81471
2314.39307	0.81472
2312.46441	0.81475
2310.53574	0.81461
2308.60708	0.81434
2306.67842	0.81406
2304.74976	0.81377
2302.82110	0.81354
2300.89244	0.81338
2298.96378	0.81323
2297.03512	0.81306
2295.10646	0.81296
2293.17780	0.81287
2291.24914	0.81273
2289.32047	0.81260
2287.39181	0.81248
2285.46315	0.81234
2283.53449	0.81227
2281.60583	0.81230
2279.67717	0.81236
2277.74851	0.81242
2275.81985	0.81246
2273.89119	0.81252
2271.96253	0.81258
2270.03387	0.81257
2268.10521	0.81251
2266.17654	0.81247
2264.24788	0.81244
2262.31922	0.81245
2260.39056	0.81248
2258.46190	0.81246
2256.53324	0.81240
2254.60458	0.81236
2252.67592	0.81232
2250.74726	0.81227
2248.81860	0.81225
2246.88994	0.81227
2244.96127	0.81228
2243.03261	0.81224
2241.10395	0.81217
2239.17529	0.81215
2237.24663	0.81216
2235.31797	0.81217
2233.38931	0.81217
2231.46065	0.81214
2229.53199	0.81208
2227.60333	0.81206
2225.67467	0.81206
2223.74600	0.81199
2221.81734	0.81191
2219.88868	0.81188
2217.96002	0.81188
2216.03136	0.81183
2214.10270	0.81178
2212.17404	0.81176
2210.24538	0.81173
2208.31672	0.81167
2206.38806	0.81159
2204.45940	0.81155
2202.53073	0.81155
2200.60207	0.81155
2198.67341	0.81152
2196.74475	0.81149
2194.81609	0.81149
2192.88743	0.81150
2190.95877	0.81147
2189.03011	0.81141
2187.10145	0.81141
2185.17279	0.81143
2183.24413	0.81145
2181.31547	0.81146
2179.38680	0.81144
2177.45814	0.81138
2175.52948	0.81134
2173.60082	0.81135
2171.67216	0.81139
2169.74350	0.81142
2167.81484	0.81144
2165.88618	0.81143
2163.95752	0.81143
2162.02886	0.81144
2160.10020	0.81144
2158.17153	0.81142
2156.24287	0.81144
2154.31421	0.81151
2152.38555	0.81160
2150.45689	0.81163
2148.52823	0.81159
2146.59957	0.81157
2144.67091	0.81160
2142.74225	0.81160
2140.81359	0.81158
2138.88493	0.81158
2136.95626	0.81160
2135.02760	0.81163
2133.09894	0.81166
2131.17028	0.81165
2129.24162	0.81161
2127.31296	0.81158
2125.38430	0.81158
2123.45564	0.81160
2121.52698	0.81160
2119.59832	0.81161
2117.66966	0.81166
2115.74099	0.81167
2113.81233	0.81165
2111.88367	0.81166
2109.95501	0.81171
2108.02635	0.81172
2106.09769	0.81168
2104.16903	0.81164
2102.24037	0.81165
2100.31171	0.81168
2098.38305	0.81166
2096.45439	0.81163
2094.52573	0.81164
2092.59706	0.81168
2090.66840	0.81169
2088.73974	0.81167
2086.81108	0.81166
2084.88242	0.81169
2082.95376	0.81174
2081.02510	0.81173
2079.09644	0.81167
2077.16778	0.81163
2075.23912	0.81166
2073.31046	0.81171
2071.38179	0.81174
2069.45313	0.81174
2067.52447	0.81174
2065.59581	0.81174
2063.66715	0.81171
2061.73849	0.81168
2059.80983	0.81168
2057.88117	0.81170
2055.95251	0.81173
2054.02385	0.81173
2052.09519	0.81168
2050.16652	0.81164
2048.23786	0.81164
2046.30920	0.81167
2044.38054	0.81168
2042.45188	0.81166
2040.52322	0.81160
2038.59456	0.81153
2036.66590	0.81150
2034.73724	0.81150
2032.80858	0.81151
2030.87992	0.81152
2028.95125	0.81154
2027.02259	0.81157
2025.09393	0.81155
2023.16527	0.81147
2021.23661	0.81148
2019.30795	0.81156
2017.37929	0.81157
2015.45063	0.81149
2013.52197	0.81147
2011.59331	0.81151
2009.66465	0.81148
2007.73599	0.81140
2005.80732	0.81134
2003.87866	0.81129
2001.95000	0.81126
2000.02134	0.81129
1998.09268	0.81134
1996.16402	0.81144
1994.23536	0.81169
1992.30670	0.81187
1990.37804	0.81175
1988.44938	0.81154
1986.52072	0.81141
1984.59205	0.81128
1982.66339	0.81118
1980.73473	0.81118
1978.80607	0.81127
1976.87741	0.81136
1974.94875	0.81137
1973.02009	0.81129
1971.09143	0.81129
1969.16277	0.81149
1967.23411	0.81165
1965.30545	0.81155
1963.37678	0.81138
1961.44812	0.81130
1959.51946	0.81125
1957.59080	0.81126
1955.66214	0.81131
1953.73348	0.81128
1951.80482	0.81122
1949.87616	0.81121
1947.94750	0.81133
1946.01884	0.81162
1944.09018	0.81201
1942.16151	0.81202
1940.23285	0.81158
1938.30419	0.81123
1936.37553	0.81115
1934.44687	0.81114
1932.51821	0.81112
1930.58955	0.81112
1928.66089	0.81113
1926.73223	0.81124
1924.80357	0.81155
1922.87491	0.81180
1920.94625	0.81186
1919.01758	0.81192
1917.08892	0.81175
1915.16026	0.81137
1913.23160	0.81127
1911.30294	0.81147
1909.37428	0.81153
1907.44562	0.81131
1905.51696	0.81110
1903.58830	0.81105
1901.65964	0.81103
1899.73098	0.81104
1897.80231	0.81120
1895.87365	0.81139
1893.94499	0.81141
1892.01633	0.81149
1890.08767	0.81166
1888.15901	0.81148
1886.23035	0.81116
1884.30169	0.81106
1882.37303	0.81103
1880.44437	0.81096
1878.51571	0.81088
1876.58704	0.81083
1874.65838	0.81090
1872.72972	0.81131
1870.80106	0.81225
1868.87240	0.81296
1866.94374	0.81250
1865.01508	0.81156
1863.08642	0.81101
1861.15776	0.81085
1859.22910	0.81081
1857.30044	0.81077
1855.37177	0.81074
1853.44311	0.81075
1851.51445	0.81087
1849.58579	0.81122
1847.65713	0.81186
1845.72847	0.81256
1843.79981	0.81253
1841.87115	0.81174
1839.94249	0.81119
1838.01383	0.81108
1836.08517	0.81101
1834.15651	0.81110
1832.22784	0.81181
1830.29918	0.81265
1828.37052	0.81265
1826.44186	0.81227
1824.51320	0.81185
1822.58454	0.81125
1820.65588	0.81086
1818.72722	0.81080
1816.79856	0.81080
1814.86990	0.81092
1812.94124	0.81133
1811.01257	0.81165
1809.08391	0.81142
1807.15525	0.81105
1805.22659	0.81109
1803.29793	0.81168
1801.36927	0.81231
1799.44061	0.81232
1797.51195	0.81203
1795.58329	0.81229
1793.65463	0.81303
1791.72597	0.81302
1789.79730	0.81199
1787.86864	0.81130
1785.93998	0.81132
1784.01132	0.81158
1782.08266	0.81186
1780.15400	0.81192
1778.22534	0.81181
1776.29668	0.81222
1774.36802	0.81345
1772.43936	0.81442
1770.51070	0.81389
1768.58203	0.81269
1766.65337	0.81179
1764.72471	0.81167
1762.79605	0.81218
1760.86739	0.81239
1758.93873	0.81221
1757.01007	0.81200
1755.08141	0.81177
1753.15275	0.81218
1751.22409	0.81344
1749.29543	0.81422
1747.36677	0.81372
1745.43810	0.81296
1743.50944	0.81274
1741.58078	0.81292
1739.65212	0.81290
1737.72346	0.81286
1735.79480	0.81371
1733.86614	0.81463
1731.93748	0.81392
1730.00882	0.81265
1728.08016	0.81165
1726.15150	0.81127
1724.22283	0.81147
1722.29417	0.81202
1720.36551	0.81340
1718.43685	0.81555
1716.50819	0.81609
1714.57953	0.81440
1712.65087	0.81282
1710.72221	0.81229
1708.79355	0.81282
1706.86489	0.81391
1704.93623	0.81457
1703.00756	0.81505
1701.07890	0.81620
1699.15024	0.81689
1697.22158	0.81620
1695.29292	0.81444
1693.36426	0.81278
1691.43560	0.81245
1689.50694	0.81304
1687.57828	0.81407
1685.64962	0.81586
1683.72096	0.81643
1681.79229	0.81451
1679.86363	0.81292
1677.93497	0.81268
1676.00631	0.81327
1674.07765	0.81363
1672.14899	0.81399
1670.22033	0.81441
1668.29167	0.81342
1666.36301	0.81217
1664.43435	0.81216
1662.50569	0.81227
1660.57703	0.81149
1658.64836	0.81115
1656.71970	0.81241
1654.79104	0.81525
1652.86238	0.81640
1650.93372	0.81483
1649.00506	0.81484
1647.07640	0.81520
1645.14774	0.81332
1643.21908	0.81135
1641.29042	0.81093
1639.36176	0.81199
1637.43309	0.81404
1635.50443	0.81451
1633.57577	0.81232
1631.64711	0.81086
1629.71845	0.81098
1627.78979	0.81158
1625.86113	0.81204
1623.93247	0.81237
1622.00381	0.81194
1620.07515	0.81165
1618.14649	0.81248
1616.21782	0.81271
1614.28916	0.81148
1612.36050	0.81071
1610.43184	0.81074
1608.50318	0.81061
1606.57452	0.80995
1604.64586	0.80920
1602.71720	0.80846
1600.78854	0.80753
1598.85988	0.80652
1596.93122	0.80548
1595.00255	0.80404
1593.07389	0.80182
1591.14523	0.79887
1589.21657	0.79549
1587.28791	0.79220
1585.35925	0.78958
1583.43059	0.78801
1581.50193	0.78780
1579.57327	0.78930
1577.64461	0.79256
1575.71595	0.79584
1573.78729	0.79762
1571.85862	0.79997
1569.92996	0.80322
1568.00130	0.80504
1566.07264	0.80573
1564.14398	0.80682
1562.21532	0.80908
1560.28666	0.81348
1558.35800	0.81592
1556.42934	0.81315
1554.50068	0.81077
1552.57202	0.80976
1550.64335	0.80938
1548.71469	0.80906
1546.78603	0.80938
1544.85737	0.81108
1542.92871	0.81375
1541.00005	0.81564
1539.07139	0.81366
1537.14273	0.81098
1535.21407	0.81068
1533.28541	0.81114
1531.35675	0.81065
1529.42808	0.81072
1527.49942	0.81200
1525.57076	0.81345
1523.64210	0.81496
1521.71344	0.81623
1519.78478	0.81620
1517.85612	0.81557
1515.92746	0.81452
1513.99880	0.81347
1512.07014	0.81363
1510.14148	0.81550
1508.21281	0.81841
1506.28415	0.81790
1504.35549	0.81399
1502.42683	0.81196
1500.49817	0.81213
1498.56951	0.81305
1496.64085	0.81278
1494.71219	0.81152
1492.78353	0.81146
1490.85487	0.81285
1488.92621	0.81339
1486.99755	0.81195
1485.06888	0.81044
1483.14022	0.80989
1481.21156	0.80996
1479.28290	0.81035
1477.35424	0.81134
1475.42558	0.81282
1473.49692	0.81363
1471.56826	0.81226
1469.63960	0.81026
1467.71094	0.80975
1465.78228	0.81032
1463.85361	0.81029
1461.92495	0.81022
1459.99629	0.81178
1458.06763	0.81411
1456.13897	0.81333
1454.21031	0.81083
1452.28165	0.80957
1450.35299	0.80946
1448.42433	0.80964
1446.49567	0.80920
1444.56701	0.80842
1442.63834	0.80802
1440.70968	0.80823
1438.78102	0.80915
1436.85236	0.80993
1434.92370	0.80935
1432.99504	0.80871
1431.06638	0.80876
1429.13772	0.80863
1427.20906	0.80832
1425.28040	0.80848
1423.35174	0.80885
1421.42307	0.80951
1419.49441	0.81037
1417.56575	0.80988
1415.63709	0.80849
1413.70843	0.80773
1411.77977	0.80757
1409.85111	0.80754
1407.92245	0.80772
1405.99379	0.80809
1404.06513	0.80809
1402.13647	0.80808
1400.20781	0.80868
1398.27914	0.80941
1396.35048	0.80966
1394.42182	0.80914
1392.49316	0.80817
1390.56450	0.80782
1388.63584	0.80829
1386.70718	0.80859
1384.77852	0.80817
1382.84986	0.80761
1380.92120	0.80730
1378.99254	0.80729
1377.06387	0.80768
1375.13521	0.80808
1373.20655	0.80777
1371.27789	0.80707
1369.34923	0.80670
1367.42057	0.80664
1365.49191	0.80694
1363.56325	0.80746
1361.63459	0.80727
1359.70593	0.80646
1357.77727	0.80591
1355.84860	0.80572
1353.91994	0.80560
1351.99128	0.80551
1350.06262	0.80552
1348.13396	0.80553
1346.20530	0.80549
1344.27664	0.80557
1342.34798	0.80598
1340.41932	0.80645
1338.49066	0.80636
1336.56200	0.80583
1334.63333	0.80545
1332.70467	0.80536
1330.77601	0.80540
1328.84735	0.80544
1326.91869	0.80545
1324.99003	0.80549
1323.06137	0.80562
1321.13271	0.80582
1319.20405	0.80593
1317.27539	0.80585
1315.34673	0.80571
1313.41807	0.80566
1311.48940	0.80563
1309.56074	0.80566
1307.63208	0.80569
1305.70342	0.80565
1303.77476	0.80559
1301.84610	0.80560
1299.91744	0.80565
1297.98878	0.80566
1296.06012	0.80561
1294.13146	0.80550
1292.20280	0.80538
1290.27413	0.80533
1288.34547	0.80534
1286.41681	0.80532
1284.48815	0.80521
1282.55949	0.80506
1280.63083	0.80493
1278.70217	0.80484
1276.77351	0.80476
1274.84485	0.80472
1272.91619	0.80471
1270.98753	0.80467
1269.05886	0.80451
1267.13020	0.80431
1265.20154	0.80419
1263.27288	0.80418
1261.34422	0.80424
1259.41556	0.80426
1257.48690	0.80428
1255.55824	0.80428
1253.62958	0.80420
1251.70092	0.80404
1249.77226	0.80386
1247.84359	0.80369
1245.91493	0.80351
1243.98627	0.80332
1242.05761	0.80314
1240.12895	0.80298
1238.20029	0.80282
1236.27163	0.80262
1234.34297	0.80240
1232.41431	0.80218
1230.48565	0.80194
1228.55699	0.80171
1226.62833	0.80150
1224.69966	0.80124
1222.77100	0.80094
1220.84234	0.80068
1218.91368	0.80043
1216.98502	0.80019
1215.05636	0.79992
1213.12770	0.79960
1211.19904	0.79924
1209.27038	0.79892
1207.34172	0.79864
1205.41306	0.79836
1203.48439	0.79808
1201.55573	0.79779
1199.62707	0.79749
1197.69841	0.79721
1195.76975	0.79698
1193.84109	0.79675
1191.91243	0.79656
1189.98377	0.79639
1188.05511	0.79621
1186.12645	0.79599
1184.19779	0.79579
1182.26912	0.79556
1180.34046	0.79521
1178.41180	0.79475
1176.48314	0.79429
1174.55448	0.79384
1172.62582	0.79339
1170.69716	0.79304
1168.76850	0.79276
1166.83984	0.79244
1164.91118	0.79211
1162.98252	0.79186
1161.05385	0.79169
1159.12519	0.79151
1157.19653	0.79136
1155.26787	0.79125
1153.33921	0.79107
1151.41055	0.79083
1149.48189	0.79059
1147.55323	0.79032
1145.62457	0.79000
1143.69591	0.78966
1141.76725	0.78942
1139.83859	0.78929
1137.90992	0.78911
1135.98126	0.78885
1134.05260	0.78861
1132.12394	0.78839
1130.19528	0.78813
1128.26662	0.78784
1126.33796	0.78754
1124.40930	0.78730
1122.48064	0.78710
1120.55198	0.78690
1118.62332	0.78662
1116.69465	0.78623
1114.76599	0.78587
1112.83733	0.78560
1110.90867	0.78533
1108.98001	0.78502
1107.05135	0.78469
1105.12269	0.78437
1103.19403	0.78407
1101.26537	0.78378
1099.33671	0.78348
1097.40805	0.78322
1095.47938	0.78296
1093.55072	0.78265
1091.62206	0.78238
1089.69340	0.78219
1087.76474	0.78202
1085.83608	0.78182
1083.90742	0.78165
1081.97876	0.78153
1080.05010	0.78146
1078.12144	0.78138
1076.19278	0.78125
1074.26411	0.78112
1072.33545	0.78107
1070.40679	0.78111
1068.47813	0.78120
1066.54947	0.78126
1064.62081	0.78126
1062.69215	0.78125
1060.76349	0.78133
1058.83483	0.78147
1056.90617	0.78157
1054.97751	0.78164
1053.04885	0.78178
1051.12018	0.78197
1049.19152	0.78216
1047.26286	0.78233
1045.33420	0.78251
1043.40554	0.78270
1041.47688	0.78285
1039.54822	0.78294
1037.61956	0.78299
1035.69090	0.78305
1033.76224	0.78311
1031.83358	0.78312
1029.90491	0.78311
1027.97625	0.78310
1026.04759	0.78306
1024.11893	0.78297
1022.19027	0.78283
1020.26161	0.78268
1018.33295	0.78256
1016.40429	0.78250
1014.47563	0.78252
1012.54697	0.78256
1010.61831	0.78251
1008.68964	0.78230
1006.76098	0.78202
1004.83232	0.78182
1002.90366	0.78167
1000.97500	0.78146
999.04634	0.78117
997.11768	0.78090
995.18902	0.78070
993.26036	0.78049
991.33170	0.78019
989.40304	0.77986
987.47438	0.77958
985.54571	0.77935
983.61705	0.77907
981.68839	0.77868
979.75973	0.77829
977.83107	0.77796
975.90241	0.77762
973.97375	0.77725
972.04509	0.77696
970.11643	0.77678
968.18777	0.77663
966.25911	0.77647
964.33044	0.77628
962.40178	0.77608
960.47312	0.77589
958.54446	0.77570
956.61580	0.77544
954.68714	0.77512
952.75848	0.77485
950.82982	0.77468
948.90116	0.77450
946.97250	0.77424
945.04384	0.77400
943.11517	0.77380
941.18651	0.77358
939.25785	0.77331
937.32919	0.77304
935.40053	0.77281
933.47187	0.77261
931.54321	0.77243
929.61455	0.77233
927.68589	0.77231
925.75723	0.77231
923.82857	0.77224
921.89990	0.77213
919.97124	0.77198
918.04258	0.77181
916.11392	0.77166
914.18526	0.77147
912.25660	0.77127
910.32794	0.77112
908.39928	0.77093
906.47062	0.77065
904.54196	0.77037
902.61330	0.77017
900.68464	0.76999
898.75597	0.76974
896.82731	0.76941
894.89865	0.76911
892.96999	0.76889
891.04133	0.76872
889.11267	0.76851
887.18401	0.76830
885.25535	0.76818
883.32669	0.76816
881.39803	0.76807
879.46937	0.76782
877.54070	0.76747
875.61204	0.76710
873.68338	0.76670
871.75472	0.76626
869.82606	0.76585
867.89740	0.76551
865.96874	0.76518
864.04008	0.76480
862.11142	0.76434
860.18276	0.76387
858.25410	0.76348
856.32543	0.76307
854.39677	0.76255
852.46811	0.76197
850.53945	0.76148
848.61079	0.76114
846.68213	0.76081
844.75347	0.76041
842.82481	0.76003
840.89615	0.75966
838.96749	0.75927
837.03883	0.75889
835.11016	0.75848
833.18150	0.75791
831.25284	0.75718
829.32418	0.75634
827.39552	0.75540
825.46686	0.75429
823.53820	0.75288
821.60954	0.75121
819.68088	0.74950
817.75222	0.74794
815.82356	0.74649
813.89490	0.74501
811.96623	0.74347
810.03757	0.74185
808.10891	0.74013
806.18025	0.73831
804.25159	0.73631
802.32293	0.73397
800.39427	0.73124
798.46561	0.72825
796.53695	0.72522
794.60829	0.72232
792.67963	0.71954
790.75096	0.71667
788.82230	0.71364
786.89364	0.71067
784.96498	0.70782
783.03632	0.70489
781.10766	0.70185
779.17900	0.69889
777.25034	0.69594
775.32168	0.69285
773.39302	0.68973
771.46436	0.68667
769.53569	0.68361
767.60703	0.68043
765.67837	0.67701
763.74971	0.67345
761.82105	0.66996
759.89239	0.66658
757.96373	0.66312
756.03507	0.65948
754.10641	0.65582
752.17775	0.65230
750.24909	0.64881
748.32042	0.64512
746.39176	0.64125
744.46310	0.63743
742.53444	0.63389
740.60578	0.63058
738.67712	0.62730
736.74846	0.62392
734.81980	0.62058
732.89114	0.61759
730.96248	0.61499
729.03382	0.61253
727.10516	0.61011
725.17649	0.60776
723.24783	0.60533
721.31917	0.60267
719.39051	0.59994
717.46185	0.59741
715.53319	0.59514
713.60453	0.59326
711.67587	0.59186
709.74721	0.59084
707.81855	0.59010
705.88989	0.58956
703.96122	0.58920
702.03256	0.58895
700.10390	0.58868
698.17524	0.58852
696.24658	0.58859
694.31792	0.58873
692.38926	0.58884
690.46060	0.58892
688.53194	0.58903
686.60328	0.58935
684.67462	0.58998
682.74595	0.59067
680.81729	0.59124
678.88863	0.59192
676.95997	0.59283
675.03131	0.59368
673.10265	0.59439
671.17399	0.59548
669.24533	0.59722
667.31667	0.59845
665.38801	0.59882
663.45935	0.59965
661.53068	0.60092
659.60202	0.60215
657.67336	0.60335
655.74470	0.60458
653.81604	0.60592
651.88738	0.60748
649.95872	0.60918
648.03006	0.61078
646.10140	0.61205
644.17274	0.61306
642.24408	0.61381
640.31542	0.61434
638.38675	0.61472
636.45809	0.61465
634.52943	0.61402
632.60077	0.61342
630.67211	0.61317
628.74345	0.61324
626.81479	0.61331
624.88613	0.61326
622.95747	0.61339
621.02881	0.61367
619.10015	0.61374
617.17148	0.61364
615.24282	0.61349
613.31416	0.61358
611.38550	0.61445
609.45684	0.61606
607.52818	0.61774
605.59952	0.61932
603.67086	0.62143
601.74220	0.62413
599.81354	0.62617
597.88488	0.62755
595.95621	0.62897
594.02755	0.63045
592.09889	0.63159
590.17023	0.63253
588.24157	0.63346
586.31291	0.63409
584.38425	0.63424
582.45559	0.63442
580.52693	0.63489
578.59827	0.63555
576.66961	0.63623
574.74094	0.63675
572.81228	0.63688
570.88362	0.63662
568.95496	0.63640
567.02630	0.63637
565.09764	0.63662
563.16898	0.63707
561.24032	0.63725
559.31166	0.63697
557.38300	0.63668
555.45434	0.63687
553.52568	0.63750
551.59701	0.63777
549.66835	0.63727
547.73969	0.63706
545.81103	0.63752
543.88237	0.63767
541.95371	0.63753
540.02505	0.63775
538.09639	0.63787
536.16773	0.63752
534.23907	0.63708
532.31041	0.63674
530.38174	0.63637
528.45308	0.63599
526.52442	0.63583
524.59576	0.63590
522.66710	0.63603
520.73844	0.63573
518.80978	0.63485
516.88112	0.63374
514.95246	0.63276
513.02380	0.63236
511.09514	0.63255
509.16647	0.63268
507.23781	0.63251
505.30915	0.63213
503.38049	0.63167
501.45183	0.63161
499.52317	0.63177
497.59451	0.63147
495.66585	0.63097
493.73719	0.63078
491.80853	0.63077
489.87987	0.63095
487.95120	0.63129
486.02254	0.63144
484.09388	0.63131
482.16522	0.63097
480.23656	0.63065
478.30790	0.63070
476.37924	0.63091
474.45058	0.63077
472.52192	0.63032
470.59326	0.63001
468.66460	0.63030
466.73594	0.63109
464.80727	0.63154
462.87861	0.63115
460.94995	0.63068
459.02129	0.63074
457.09263	0.63085
455.16397	0.63061
453.23531	0.63025
451.30665	0.63028
449.37799	0.63087
447.44933	0.63139
445.52067	0.63122
443.59200	0.63073
441.66334	0.63066
439.73468	0.63103
437.80602	0.63135
435.87736	0.63131
433.94870	0.63104
432.02004	0.63082
430.09138	0.63062
428.16272	0.63036
426.23406	0.63032
424.30540	0.63070
422.37673	0.63124
420.44807	0.63146
418.51941	0.63136
416.59075	0.63145
414.66209	0.63154
412.73343	0.63123
410.80477	0.63093
408.87611	0.63093
406.94745	0.63128
405.01879	0.63189
403.09013	0.63227
401.16146	0.63222
399.23280	0.63184
