4000.04268	0.82359
3998.11402	0.82354
3996.18536	0.82350
3994.25670	0.82345
3992.32804	0.82335
3990.39938	0.82327
3988.47072	0.82334
3986.54206	0.82355
3984.61340	0.82367
3982.68474	0.82352
3980.75607	0.82329
3978.82741	0.82320
3976.89875	0.82318
3974.97009	0.82312
3973.04143	0.82311
3971.11277	0.82317
3969.18411	0.82326
3967.25545	0.82326
3965.32679	0.82306
3963.39813	0.82275
3961.46947	0.82262
3959.54080	0.82268
3957.61214	0.82271
3955.68348	0.82272
3953.75482	0.82265
3951.82616	0.82232
3949.89750	0.82197
3947.96884	0.82197
3946.04018	0.82201
3944.11152	0.82179
3942.18286	0.82186
3940.25420	0.82230
3938.32553	0.82263
3936.39687	0.82260
3934.46821	0.82209
3932.53955	0.82143
3930.61089	0.82134
3928.68223	0.82156
3926.75357	0.82139
3924.82491	0.82111
3922.89625	0.82112
3920.96759	0.82101
3919.03893	0.82070
3917.11026	0.82082
3915.18160	0.82147
3913.25294	0.82206
3911.32428	0.82226
3909.39562	0.82191
3907.46696	0.82071
3905.53830	0.81887
3903.60964	0.81758
3901.68098	0.81754
3899.75232	0.81854
3897.82366	0.82002
3895.89500	0.82082
3893.96633	0.82040
3892.03767	0.81972
3890.10901	0.81983
3888.18035	0.81989
3886.25169	0.81954
3884.32303	0.81937
3882.39437	0.81904
3880.46571	0.81902
3878.53705	0.81978
3876.60839	0.81985
3874.67973	0.81892
3872.75106	0.81785
3870.82240	0.81720
3868.89374	0.81767
3866.96508	0.81824
3865.03642	0.81813
3863.10776	0.81851
3861.17910	0.81940
3859.25044	0.81946
3857.32178	0.81774
3855.39312	0.81408
3853.46446	0.81261
3851.53579	0.81617
3849.60713	0.81937
3847.67847	0.82062
3845.74981	0.82034
3843.82115	0.81904
3841.89249	0.81743
3839.96383	0.81628
3838.03517	0.81665
3836.10651	0.81800
3834.17785	0.81860
3832.24919	0.81877
3830.32052	0.81912
3828.39186	0.81920
3826.46320	0.81895
3824.53454	0.81820
3822.60588	0.81675
3820.67722	0.81631
3818.74856	0.81699
3816.81990	0.81739
3814.89124	0.81842
3812.96258	0.81964
3811.03392	0.81971
3809.10526	0.81858
3807.17659	0.81754
3805.24793	0.81718
3803.31927	0.81630
3801.39061	0.81585
3799.46195	0.81693
3797.53329	0.81793
3795.60463	0.81877
3793.67597	0.81974
3791.74731	0.82025
3789.81865	0.82017
3787.88999	0.81976
3785.96132	0.81933
3784.03266	0.81918
3782.10400	0.81917
3780.17534	0.81920
3778.24668	0.81942
3776.31802	0.81962
3774.38936	0.81945
3772.46070	0.81872
3770.53204	0.81784
3768.60338	0.81761
3766.67472	0.81781
3764.74605	0.81813
3762.81739	0.81813
3760.88873	0.81737
3758.96007	0.81678
3757.03141	0.81676
3755.10275	0.81588
3753.17409	0.81333
3751.24543	0.81113
3749.31677	0.81169
3747.38811	0.81200
3745.45945	0.81109
3743.53078	0.81252
3741.60212	0.81534
3739.67346	0.81610
3737.74480	0.81422
3735.81614	0.81167
3733.88748	0.81157
3731.95882	0.81326
3730.03016	0.81429
3728.10150	0.81410
3726.17284	0.81359
3724.24418	0.81375
3722.31552	0.81448
3720.38685	0.81559
3718.45819	0.81667
3716.52953	0.81681
3714.60087	0.81536
3712.67221	0.81308
3710.74355	0.81267
3708.81489	0.81431
3706.88623	0.81563
3704.95757	0.81565
3703.02891	0.81497
3701.10025	0.81500
3699.17158	0.81584
3697.24292	0.81648
3695.31426	0.81637
3693.38560	0.81537
3691.45694	0.81438
3689.52828	0.81492
3687.59962	0.81641
3685.67096	0.81725
3683.74230	0.81733
3681.81364	0.81671
3679.88498	0.81529
3677.95631	0.81287
3676.02765	0.81112
3674.09899	0.81208
3672.17033	0.81277
3670.24167	0.81276
3668.31301	0.81440
3666.38435	0.81630
3664.45569	0.81723
3662.52703	0.81789
3660.59837	0.81816
3658.66971	0.81699
3656.74104	0.81508
3654.81238	0.81418
3652.88372	0.81329
3650.95506	0.81083
3649.02640	0.80880
3647.09774	0.81005
3645.16908	0.81210
3643.24042	0.81281
3641.31176	0.81249
3639.38310	0.81195
3637.45444	0.81126
3635.52578	0.81013
3633.59711	0.80846
3631.66845	0.80580
3629.73979	0.80287
3627.81113	0.80323
3625.88247	0.80550
3623.95381	0.80645
3622.02515	0.80563
3620.09649	0.80382
3618.16783	0.80297
3616.23917	0.80308
3614.31051	0.80272
3612.38184	0.80202
3610.45318	0.80134
3608.52452	0.80115
3606.59586	0.80214
3604.66720	0.80312
3602.73854	0.80314
3600.80988	0.80284
3598.88122	0.80239
3596.95256	0.80154
3595.02390	0.80127
3593.09524	0.80194
3591.16657	0.80204
3589.23791	0.80145
3587.30925	0.80247
3585.38059	0.80480
3583.45193	0.80590
3581.52327	0.80565
3579.59461	0.80512
3577.66595	0.80495
3575.73729	0.80518
3573.80863	0.80567
3571.87997	0.80597
3569.95130	0.80508
3568.02264	0.80340
3566.09398	0.80358
3564.16532	0.80571
3562.23666	0.80743
3560.30800	0.80798
3558.37934	0.80792
3556.45068	0.80773
3554.52202	0.80763
3552.59336	0.80786
3550.66470	0.80815
3548.73604	0.80840
3546.80737	0.80913
3544.87871	0.80985
3542.95005	0.80957
3541.02139	0.80861
3539.09273	0.80805
3537.16407	0.80797
3535.23541	0.80743
3533.30675	0.80641
3531.37809	0.80553
3529.44943	0.80489
3527.52077	0.80482
3525.59210	0.80550
3523.66344	0.80585
3521.73478	0.80523
3519.80612	0.80455
3517.87746	0.80456
3515.94880	0.80502
3514.02014	0.80510
3512.09148	0.80422
3510.16282	0.80324
3508.23416	0.80314
3506.30550	0.80387
3504.37683	0.80499
3502.44817	0.80568
3500.51951	0.80569
3498.59085	0.80568
3496.66219	0.80559
3494.73353	0.80520
3492.80487	0.80483
3490.87621	0.80476
3488.94755	0.80507
3487.01889	0.80528
3485.09023	0.80489
3483.16156	0.80485
3481.23290	0.80584
3479.30424	0.80638
3477.37558	0.80564
3475.44692	0.80487
3473.51826	0.80520
3471.58960	0.80686
3469.66094	0.80875
3467.73228	0.80886
3465.80362	0.80714
3463.87496	0.80558
3461.94630	0.80535
3460.01763	0.80540
3458.08897	0.80474
3456.16031	0.80400
3454.23165	0.80371
3452.30299	0.80360
3450.37433	0.80350
3448.44567	0.80344
3446.51701	0.80334
3444.58835	0.80316
3442.65969	0.80312
3440.73103	0.80382
3438.80236	0.80554
3436.87370	0.80718
3434.94504	0.80726
3433.01638	0.80629
3431.08772	0.80564
3429.15906	0.80502
3427.23040	0.80377
3425.30174	0.80255
3423.37308	0.80204
3421.44442	0.80197
3419.51576	0.80180
3417.58709	0.80172
3415.65843	0.80234
3413.72977	0.80324
3411.80111	0.80361
3409.87245	0.80334
3407.94379	0.80259
3406.01513	0.80219
3404.08647	0.80348
3402.15781	0.80566
3400.22915	0.80592
3398.30049	0.80397
3396.37182	0.80261
3394.44316	0.80329
3392.51450	0.80426
3390.58584	0.80334
3388.65718	0.80117
3386.72852	0.79971
3384.79986	0.79938
3382.87120	0.79965
3380.94254	0.80010
3379.01388	0.80028
3377.08522	0.80007
3375.15656	0.79981
3373.22789	0.80058
3371.29923	0.80273
3369.37057	0.80437
3367.44191	0.80366
3365.51325	0.80138
3363.58459	0.79977
3361.65593	0.79949
3359.72727	0.79915
3357.79861	0.79825
3355.86995	0.79787
3353.94129	0.79892
3352.01262	0.80057
3350.08396	0.80060
3348.15530	0.79898
3346.22664	0.79811
3344.29798	0.79858
3342.36932	0.79925
3340.44066	0.79991
3338.51200	0.79998
3336.58334	0.79859
3334.65468	0.79676
3332.72602	0.79578
3330.79735	0.79562
3328.86869	0.79625
3326.94003	0.79728
3325.01137	0.79730
3323.08271	0.79609
3321.15405	0.79495
3319.22539	0.79442
3317.29673	0.79416
3315.36807	0.79402
3313.43941	0.79431
3311.51075	0.79563
3309.58208	0.79792
3307.65342	0.79983
3305.72476	0.79965
3303.79610	0.79714
3301.86744	0.79428
3299.93878	0.79322
3298.01012	0.79405
3296.08146	0.79526
3294.15280	0.79569
3292.22414	0.79484
3290.29548	0.79282
3288.36682	0.79089
3286.43815	0.78999
3284.50949	0.78965
3282.58083	0.78939
3280.65217	0.78922
3278.72351	0.78940
3276.79485	0.79018
3274.86619	0.79138
3272.93753	0.79277
3271.00887	0.79318
3269.08021	0.79142
3267.15155	0.78897
3265.22288	0.78768
3263.29422	0.78736
3261.36556	0.78745
3259.43690	0.78805
3257.50824	0.78907
3255.57958	0.78940
3253.65092	0.78870
3251.72226	0.78843
3249.79360	0.78961
3247.86494	0.79104
3245.93628	0.79089
3244.00761	0.78973
3242.07895	0.78918
3240.15029	0.78936
3238.22163	0.79008
3236.29297	0.79187
3234.36431	0.79381
3232.43565	0.79375
3230.50699	0.79215
3228.57833	0.79110
3226.64967	0.79098
3224.72101	0.79121
3222.79234	0.79169
3220.86368	0.79236
3218.93502	0.79283
3217.00636	0.79299
3215.07770	0.79314
3213.14904	0.79328
3211.22038	0.79348
3209.29172	0.79396
3207.36306	0.79453
3205.43440	0.79488
3203.50574	0.79507
3201.57708	0.79524
3199.64841	0.79545
3197.71975	0.79581
3195.79109	0.79631
3193.86243	0.79685
3191.93377	0.79742
3190.00511	0.79793
3188.07645	0.79821
3186.14779	0.79838
3184.21913	0.79873
3182.29047	0.79921
3180.36181	0.79968
3178.43314	0.80013
3176.50448	0.80057
3174.57582	0.80098
3172.64716	0.80135
3170.71850	0.80171
3168.78984	0.80210
3166.86118	0.80252
3164.93252	0.80301
3163.00386	0.80358
3161.07520	0.80417
3159.14654	0.80482
3157.21787	0.80586
3155.28921	0.80768
3153.36055	0.80943
3151.43189	0.80956
3149.50323	0.80851
3147.57457	0.80789
3145.64591	0.80800
3143.71725	0.80878
3141.78859	0.81049
3139.85993	0.81210
3137.93127	0.81222
3136.00260	0.81141
3134.07394	0.81122
3132.14528	0.81209
3130.21662	0.81309
3128.28796	0.81341
3126.35930	0.81358
3124.43064	0.81469
3122.50198	0.81706
3120.57332	0.81966
3118.64466	0.82123
3116.71600	0.82142
3114.78734	0.82041
3112.85867	0.81939
3110.93001	0.81980
3109.00135	0.82065
3107.07269	0.82042
3105.14403	0.81991
3103.21537	0.82044
3101.28671	0.82163
3099.35805	0.82218
3097.42939	0.82195
3095.50073	0.82196
3093.57207	0.82292
3091.64340	0.82438
3089.71474	0.82533
3087.78608	0.82594
3085.85742	0.82688
3083.92876	0.82782
3082.00010	0.82855
3080.07144	0.82917
3078.14278	0.82895
3076.21412	0.82770
3074.28546	0.82658
3072.35680	0.82648
3070.42813	0.82736
3068.49947	0.82847
3066.57081	0.82873
3064.64215	0.82806
3062.71349	0.82737
3060.78483	0.82718
3058.85617	0.82760
3056.92751	0.82824
3054.99885	0.82864
3053.07019	0.82897
3051.14153	0.82912
3049.21286	0.82894
3047.28420	0.82917
3045.35554	0.83012
3043.42688	0.83086
3041.49822	0.83055
3039.56956	0.82951
3037.64090	0.82916
3035.71224	0.82982
3033.78358	0.83002
3031.85492	0.82929
3029.92626	0.82848
3027.99760	0.82819
3026.06893	0.82843
3024.14027	0.82859
3022.21161	0.82861
3020.28295	0.82902
3018.35429	0.82979
3016.42563	0.83072
3014.49697	0.83151
3012.56831	0.83145
3010.63965	0.83028
3008.71099	0.82874
3006.78233	0.82784
3004.85366	0.82769
3002.92500	0.82779
3000.99634	0.82817
2999.06768	0.82883
2997.13902	0.82917
2995.21036	0.82937
2993.28170	0.82970
2991.35304	0.82933
2989.42438	0.82833
2987.49572	0.82776
2985.56706	0.82801
2983.63839	0.82896
2981.70973	0.82998
2979.78107	0.83017
2977.85241	0.82973
2975.92375	0.82943
2973.99509	0.82910
2972.06643	0.82841
2970.13777	0.82774
2968.20911	0.82739
2966.28045	0.82737
2964.35179	0.82754
2962.42313	0.82749
2960.49446	0.82709
2958.56580	0.82674
2956.63714	0.82696
2954.70848	0.82778
2952.77982	0.82843
2950.85116	0.82849
2948.92250	0.82881
2946.99384	0.82957
2945.06518	0.82970
2943.13652	0.82875
2941.20786	0.82739
2939.27919	0.82643
2937.35053	0.82598
2935.42187	0.82574
2933.49321	0.82584
2931.56455	0.82622
2929.63589	0.82595
2927.70723	0.82463
2925.77857	0.82319
2923.84991	0.82224
2921.92125	0.82181
2919.99259	0.82198
2918.06392	0.82276
2916.13526	0.82400
2914.20660	0.82520
2912.27794	0.82564
2910.34928	0.82539
2908.42062	0.82515
2906.49196	0.82526
2904.56330	0.82555
2902.63464	0.82568
2900.70598	0.82578
2898.77732	0.82628
2896.84865	0.82688
2894.91999	0.82688
2892.99133	0.82643
2891.06267	0.82619
2889.13401	0.82622
2887.20535	0.82626
2885.27669	0.82632
2883.34803	0.82642
2881.41937	0.82652
2879.49071	0.82664
2877.56205	0.82713
2875.63339	0.82819
2873.70472	0.82888
2871.77606	0.82826
2869.84740	0.82719
2867.91874	0.82672
2865.99008	0.82662
2864.06142	0.82657
2862.13276	0.82670
2860.20410	0.82666
2858.27544	0.82597
2856.34678	0.82497
2854.41812	0.82410
2852.48945	0.82342
2850.56079	0.82331
2848.63213	0.82389
2846.70347	0.82455
2844.77481	0.82508
2842.84615	0.82600
2840.91749	0.82747
2838.98883	0.82853
2837.06017	0.82848
2835.13151	0.82793
2833.20285	0.82744
2831.27418	0.82704
2829.34552	0.82683
2827.41686	0.82685
2825.48820	0.82698
2823.55954	0.82706
2821.63088	0.82703
2819.70222	0.82698
2817.77356	0.82696
2815.84490	0.82696
2813.91624	0.82713
2811.98758	0.82754
2810.05891	0.82770
2808.13025	0.82735
2806.20159	0.82696
2804.27293	0.82691
2802.34427	0.82719
2800.41561	0.82778
2798.48695	0.82817
2796.55829	0.82797
2794.62963	0.82766
2792.70097	0.82780
2790.77231	0.82818
2788.84365	0.82812
2786.91498	0.82752
2784.98632	0.82701
2783.05766	0.82689
2781.12900	0.82694
2779.20034	0.82714
2777.27168	0.82760
2775.34302	0.82795
2773.41436	0.82779
2771.48570	0.82748
2769.55704	0.82739
2767.62838	0.82735
2765.69971	0.82720
2763.77105	0.82703
2761.84239	0.82694
2759.91373	0.82692
2757.98507	0.82691
2756.05641	0.82691
2754.12775	0.82695
2752.19909	0.82716
2750.27043	0.82747
2748.34177	0.82757
2746.41311	0.82732
2744.48444	0.82694
2742.55578	0.82671
2740.62712	0.82668
2738.69846	0.82676
2736.76980	0.82677
2734.84114	0.82664
2732.91248	0.82652
2730.98382	0.82655
2729.05516	0.82690
2727.12650	0.82733
2725.19784	0.82739
2723.26917	0.82713
2721.34051	0.82683
2719.41185	0.82655
2717.48319	0.82640
2715.55453	0.82637
2713.62587	0.82640
2711.69721	0.82647
2709.76855	0.82650
2707.83989	0.82645
2705.91123	0.82636
2703.98257	0.82627
2702.05391	0.82624
2700.12524	0.82628
2698.19658	0.82629
2696.26792	0.82622
2694.33926	0.82616
2692.41060	0.82613
2690.48194	0.82612
2688.55328	0.82609
2686.62462	0.82605
2684.69596	0.82614
2682.76730	0.82647
2680.83864	0.82685
2678.90997	0.82694
2676.98131	0.82675
2675.05265	0.82655
2673.12399	0.82638
2671.19533	0.82618
2669.26667	0.82604
2667.33801	0.82601
2665.40935	0.82601
2663.48069	0.82599
2661.55203	0.82596
2659.62337	0.82596
2657.69470	0.82596
2655.76604	0.82592
2653.83738	0.82588
2651.90872	0.82586
2649.98006	0.82587
2648.05140	0.82591
2646.12274	0.82591
2644.19408	0.82588
2642.26542	0.82587
2640.33676	0.82595
2638.40810	0.82605
2636.47943	0.82608
2634.55077	0.82603
2632.62211	0.82596
2630.69345	0.82592
2628.76479	0.82594
2626.83613	0.82595
2624.90747	0.82588
2622.97881	0.82576
2621.05015	0.82566
2619.12149	0.82565
2617.19283	0.82571
2615.26417	0.82573
2613.33550	0.82570
2611.40684	0.82563
2609.47818	0.82555
2607.54952	0.82553
2605.62086	0.82556
2603.69220	0.82557
2601.76354	0.82559
2599.83488	0.82561
2597.90622	0.82560
2595.97756	0.82558
2594.04890	0.82554
2592.12023	0.82552
2590.19157	0.82553
2588.26291	0.82554
2586.33425	0.82553
2584.40559	0.82555
2582.47693	0.82558
2580.54827	0.82556
2578.61961	0.82555
2576.69095	0.82557
2574.76229	0.82556
2572.83363	0.82549
2570.90496	0.82546
2568.97630	0.82548
2567.04764	0.82551
2565.11898	0.82554
2563.19032	0.82558
2561.26166	0.82560
2559.33300	0.82558
2557.40434	0.82551
2555.47568	0.82547
2553.54702	0.82548
2551.61836	0.82551
2549.68969	0.82555
2547.76103	0.82559
2545.83237	0.82563
2543.90371	0.82565
2541.97505	0.82564
2540.04639	0.82564
2538.11773	0.82564
2536.18907	0.82563
2534.26041	0.82563
2532.33175	0.82565
2530.40309	0.82568
2528.47443	0.82575
2526.54576	0.82580
2524.61710	0.82581
2522.68844	0.82579
2520.75978	0.82574
2518.83112	0.82572
2516.90246	0.82575
2514.97380	0.82578
2513.04514	0.82575
2511.11648	0.82568
2509.18782	0.82561
2507.25916	0.82557
2505.33049	0.82558
2503.40183	0.82560
2501.47317	0.82561
2499.54451	0.82562
2497.61585	0.82563
2495.68719	0.82558
2493.75853	0.82551
2491.82987	0.82550
2489.90121	0.82557
2487.97255	0.82564
2486.04389	0.82568
2484.11522	0.82573
2482.18656	0.82577
2480.25790	0.82573
2478.32924	0.82571
2476.40058	0.82574
2474.47192	0.82574
2472.54326	0.82567
2470.61460	0.82564
2468.68594	0.82570
2466.75728	0.82574
2464.82862	0.82571
2462.89995	0.82567
2460.97129	0.82566
2459.04263	0.82570
2457.11397	0.82574
2455.18531	0.82574
2453.25665	0.82571
2451.32799	0.82574
2449.39933	0.82580
2447.47067	0.82582
2445.54201	0.82578
2443.61335	0.82574
2441.68469	0.82572
2439.75602	0.82572
2437.82736	0.82574
2435.89870	0.82576
2433.97004	0.82576
2432.04138	0.82575
2430.11272	0.82575
2428.18406	0.82577
2426.25540	0.82578
2424.32674	0.82575
2422.39808	0.82569
2420.46942	0.82566
2418.54075	0.82570
2416.61209	0.82577
2414.68343	0.82579
2412.75477	0.82578
2410.82611	0.82577
2408.89745	0.82571
2406.96879	0.82566
2405.04013	0.82569
2403.11147	0.82577
2401.18281	0.82581
2399.25415	0.82579
2397.32548	0.82574
2395.39682	0.82572
2393.46816	0.82572
2391.53950	0.82565
2389.61084	0.82538
2387.68218	0.82475
2385.75352	0.82350
2383.82486	0.82134
2381.89620	0.81819
2379.96754	0.81421
2378.03888	0.80965
2376.11021	0.80474
2374.18155	0.79946
2372.25289	0.79373
2370.32423	0.78771
2368.39557	0.78175
2366.46691	0.77630
2364.53825	0.77192
2362.60959	0.76912
2360.68093	0.76823
2358.75227	0.76971
2356.82361	0.77379
2354.89495	0.78009
2352.96628	0.78785
2351.03762	0.79485
2349.10896	0.79779
2347.18030	0.79535
2345.25164	0.78986
2343.32298	0.78619
2341.39432	0.78557
2339.46566	0.78631
2337.53700	0.78745
2335.60834	0.78852
2333.67968	0.78911
2331.75101	0.78959
2329.82235	0.79089
2327.89369	0.79285
2325.96503	0.79456
2324.03637	0.79594
2322.10771	0.79784
2320.17905	0.80073
2318.25039	0.80398
2316.32173	0.80660
2314.39307	0.80831
2312.46441	0.80970
2310.53574	0.81132
2308.60708	0.81320
2306.67842	0.81513
2304.74976	0.81682
2302.82110	0.81811
2300.89244	0.81912
2298.96378	0.82004
2297.03512	0.82093
2295.10646	0.82179
2293.17780	0.82256
2291.24914	0.82323
2289.32047	0.82384
2287.39181	0.82442
2285.46315	0.82492
2283.53449	0.82520
2281.60583	0.82523
2279.67717	0.82510
2277.74851	0.82497
2275.81985	0.82487
2273.89119	0.82481
2271.96253	0.82479
2270.03387	0.82477
2268.10521	0.82477
2266.17654	0.82481
2264.24788	0.82490
2262.31922	0.82502
2260.39056	0.82517
2258.46190	0.82527
2256.53324	0.82535
2254.60458	0.82544
2252.67592	0.82554
2250.74726	0.82562
2248.81860	0.82571
2246.88994	0.82581
2244.96127	0.82587
2243.03261	0.82588
2241.10395	0.82588
2239.17529	0.82587
2237.24663	0.82587
2235.31797	0.82589
2233.38931	0.82591
2231.46065	0.82588
2229.53199	0.82584
2227.60333	0.82584
2225.67467	0.82585
2223.74600	0.82583
2221.81734	0.82580
2219.88868	0.82577
2217.96002	0.82575
2216.03136	0.82574
2214.10270	0.82571
2212.17404	0.82566
2210.24538	0.82558
2208.31672	0.82547
2206.38806	0.82540
2204.45940	0.82540
2202.53073	0.82540
2200.60207	0.82538
2198.67341	0.82538
2196.74475	0.82539
2194.81609	0.82540
2192.88743	0.82541
2190.95877	0.82541
2189.03011	0.82540
2187.10145	0.82543
2185.17279	0.82547
2183.24413	0.82547
2181.31547	0.82544
2179.38680	0.82541
2177.45814	0.82542
2175.52948	0.82546
2173.60082	0.82548
2171.67216	0.82549
2169.74350	0.82550
2167.81484	0.82552
2165.88618	0.82552
2163.95752	0.82552
2162.02886	0.82552
2160.10020	0.82550
2158.17153	0.82550
2156.24287	0.82552
2154.31421	0.82556
2152.38555	0.82562
2150.45689	0.82566
2148.52823	0.82564
2146.59957	0.82562
2144.67091	0.82564
2142.74225	0.82562
2140.81359	0.82559
2138.88493	0.82561
2136.95626	0.82566
2135.02760	0.82570
2133.09894	0.82573
2131.17028	0.82575
2129.24162	0.82576
2127.31296	0.82573
2125.38430	0.82566
2123.45564	0.82561
2121.52698	0.82561
2119.59832	0.82565
2117.66966	0.82568
2115.74099	0.82567
2113.81233	0.82568
2111.88367	0.82575
2109.95501	0.82580
2108.02635	0.82583
2106.09769	0.82582
2104.16903	0.82579
2102.24037	0.82576
2100.31171	0.82578
2098.38305	0.82578
2096.45439	0.82577
2094.52573	0.82574
2092.59706	0.82571
2090.66840	0.82570
2088.73974	0.82574
2086.81108	0.82583
2084.88242	0.82587
2082.95376	0.82585
2081.02510	0.82579
2079.09644	0.82573
2077.16778	0.82569
2075.23912	0.82570
2073.31046	0.82573
2071.38179	0.82576
2069.45313	0.82576
2067.52447	0.82571
2065.59581	0.82567
2063.66715	0.82571
2061.73849	0.82578
2059.80983	0.82579
2057.88117	0.82578
2055.95251	0.82577
2054.02385	0.82576
2052.09519	0.82575
2050.16652	0.82572
2048.23786	0.82572
2046.30920	0.82570
2044.38054	0.82566
2042.45188	0.82559
2040.52322	0.82559
2038.59456	0.82563
2036.66590	0.82566
2034.73724	0.82568
2032.80858	0.82568
2030.87992	0.82564
2028.95125	0.82561
2027.02259	0.82561
2025.09393	0.82560
2023.16527	0.82557
2021.23661	0.82551
2019.30795	0.82539
2017.37929	0.82531
2015.45063	0.82541
2013.52197	0.82560
2011.59331	0.82568
2009.66465	0.82562
2007.73599	0.82553
2005.80732	0.82553
2003.87866	0.82556
2001.95000	0.82556
2000.02134	0.82554
1998.09268	0.82555
1996.16402	0.82551
1994.23536	0.82534
1992.30670	0.82515
1990.37804	0.82514
1988.44938	0.82528
1986.52072	0.82542
1984.59205	0.82548
1982.66339	0.82546
1980.73473	0.82543
1978.80607	0.82547
1976.87741	0.82555
1974.94875	0.82559
1973.02009	0.82555
1971.09143	0.82547
1969.16277	0.82533
1967.23411	0.82523
1965.30545	0.82531
1963.37678	0.82545
1961.44812	0.82550
1959.51946	0.82547
1957.59080	0.82544
1955.66214	0.82546
1953.73348	0.82550
1951.80482	0.82550
1949.87616	0.82540
1947.94750	0.82527
1946.01884	0.82514
1944.09018	0.82500
1942.16151	0.82501
1940.23285	0.82521
1938.30419	0.82536
1936.37553	0.82539
1934.44687	0.82537
1932.51821	0.82534
1930.58955	0.82531
1928.66089	0.82530
1926.73223	0.82522
1924.80357	0.82503
1922.87491	0.82488
1920.94625	0.82485
1919.01758	0.82484
1917.08892	0.82500
1915.16026	0.82526
1913.23160	0.82526
1911.30294	0.82506
1909.37428	0.82497
1907.44562	0.82507
1905.51696	0.82520
1903.58830	0.82525
1901.65964	0.82526
1899.73098	0.82527
1897.80231	0.82520
1895.87365	0.82507
1893.94499	0.82498
1892.01633	0.82484
1890.08767	0.82470
1888.15901	0.82479
1886.23035	0.82499
1884.30169	0.82512
1882.37303	0.82522
1880.44437	0.82527
1878.51571	0.82526
1876.58704	0.82524
1874.65838	0.82518
1872.72972	0.82490
1870.80106	0.82434
1868.87240	0.82401
1866.94374	0.82432
1865.01508	0.82478
1863.08642	0.82499
1861.15776	0.82498
1859.22910	0.82493
1857.30044	0.82493
1855.37177	0.82498
1853.44311	0.82499
1851.51445	0.82490
1849.58579	0.82471
1847.65713	0.82440
1845.72847	0.82401
1843.79981	0.82398
1841.87115	0.82445
1839.94249	0.82481
1838.01383	0.82486
1836.08517	0.82480
1834.15651	0.82467
1832.22784	0.82433
1830.29918	0.82399
1828.37052	0.82404
1826.44186	0.82420
1824.51320	0.82437
1822.58454	0.82465
1820.65588	0.82483
1818.72722	0.82484
1816.79856	0.82483
1814.86990	0.82480
1812.94124	0.82462
1811.01257	0.82446
1809.08391	0.82452
1807.15525	0.82468
1805.22659	0.82466
1803.29793	0.82439
1801.36927	0.82414
1799.44061	0.82419
1797.51195	0.82432
1795.58329	0.82421
1793.65463	0.82386
1791.72597	0.82382
1789.79730	0.82429
1787.86864	0.82466
1785.93998	0.82467
1784.01132	0.82457
1782.08266	0.82449
1780.15400	0.82447
1778.22534	0.82456
1776.29668	0.82446
1774.36802	0.82404
1772.43936	0.82372
1770.51070	0.82391
1768.58203	0.82431
1766.65337	0.82466
1764.72471	0.82474
1762.79605	0.82453
1760.86739	0.82442
1758.93873	0.82446
1757.01007	0.82445
1755.08141	0.82438
1753.15275	0.82395
1751.22409	0.82319
1749.29543	0.82287
1747.36677	0.82313
1745.43810	0.82339
1743.50944	0.82350
1741.58078	0.82356
1739.65212	0.82364
1737.72346	0.82359
1735.79480	0.82312
1733.86614	0.82279
1731.93748	0.82333
1730.00882	0.82404
1728.08016	0.82458
1726.15150	0.82482
1724.22283	0.82481
1722.29417	0.82469
1720.36551	0.82422
1718.43685	0.82337
1716.50819	0.82313
1714.57953	0.82379
1712.65087	0.82445
1710.72221	0.82471
1708.79355	0.82450
1706.86489	0.82404
1704.93623	0.82373
1703.00756	0.82345
1701.07890	0.82295
1699.15024	0.82284
1697.22158	0.82324
1695.29292	0.82388
1693.36426	0.82445
1691.43560	0.82451
1689.50694	0.82424
1687.57828	0.82381
1685.64962	0.82302
1683.72096	0.82268
1681.79229	0.82342
1679.86363	0.82413
1677.93497	0.82438
1676.00631	0.82427
1674.07765	0.82409
1672.14899	0.82386
1670.22033	0.82369
1668.29167	0.82410
1666.36301	0.82462
1664.43435	0.82465
1662.50569	0.82454
1660.57703	0.82467
1658.64836	0.82468
1656.71970	0.82413
1654.79104	0.82300
1652.86238	0.82260
1650.93372	0.82323
1649.00506	0.82327
1647.07640	0.82328
1645.14774	0.82399
1643.21908	0.82456
1641.29042	0.82464
1639.36176	0.82429
1637.43309	0.82363
1635.50443	0.82349
1633.57577	0.82422
1631.64711	0.82470
1629.71845	0.82465
1627.78979	0.82444
1625.86113	0.82430
1623.93247	0.82425
1622.00381	0.82444
1620.07515	0.82464
1618.14649	0.82464
1616.21782	0.82481
1614.28916	0.82521
1612.36050	0.82539
1610.43184	0.82527
1608.50318	0.82501
1606.57452	0.82464
1604.64586	0.82411
1602.71720	0.82346
1600.78854	0.82277
1598.85988	0.82193
1596.93122	0.82073
1595.00255	0.81907
1593.07389	0.81690
1591.14523	0.81416
1589.21657	0.81090
1587.28791	0.80757
1585.35925	0.80473
1583.43059	0.80288
1581.50193	0.80226
1579.57327	0.80261
1577.64461	0.80400
1575.71595	0.80694
1573.78729	0.80997
1571.85862	0.81219
1569.92996	0.81447
1568.00130	0.81678
1566.07264	0.81845
1564.14398	0.81954
1562.21532	0.81994
1560.28666	0.81970
1558.35800	0.81999
1556.42934	0.82096
1554.50068	0.82157
1552.57202	0.82179
1550.64335	0.82173
1548.71469	0.82162
1546.78603	0.82122
1544.85737	0.82034
1542.92871	0.81946
1541.00005	0.81925
1539.07139	0.82025
1537.14273	0.82125
1535.21407	0.82164
1533.28541	0.82199
1531.35675	0.82254
1529.42808	0.82279
1527.49942	0.82277
1525.57076	0.82281
1523.64210	0.82289
1521.71344	0.82314
1519.78478	0.82361
1517.85612	0.82394
1515.92746	0.82438
1513.99880	0.82486
1512.07014	0.82479
1510.14148	0.82400
1508.21281	0.82316
1506.28415	0.82378
1504.35549	0.82501
1502.42683	0.82537
1500.49817	0.82520
1498.56951	0.82496
1496.64085	0.82500
1494.71219	0.82515
1492.78353	0.82488
1490.85487	0.82422
1488.92621	0.82402
1486.99755	0.82458
1485.06888	0.82516
1483.14022	0.82537
1481.21156	0.82534
1479.28290	0.82519
1477.35424	0.82486
1475.42558	0.82431
1473.49692	0.82388
1471.56826	0.82413
1469.63960	0.82463
1467.71094	0.82475
1465.78228	0.82466
1463.85361	0.82471
1461.92495	0.82463
1459.99629	0.82411
1458.06763	0.82346
1456.13897	0.82365
1454.21031	0.82426
1452.28165	0.82458
1450.35299	0.82461
1448.42433	0.82455
1446.49567	0.82464
1444.56701	0.82477
1442.63834	0.82477
1440.70968	0.82459
1438.78102	0.82419
1436.85236	0.82377
1434.92370	0.82380
1432.99504	0.82397
1431.06638	0.82403
1429.13772	0.82409
1427.20906	0.82413
1425.28040	0.82394
1423.35174	0.82372
1421.42307	0.82356
1419.49441	0.82337
1417.56575	0.82354
1415.63709	0.82404
1413.70843	0.82436
1411.77977	0.82440
1409.85111	0.82438
1407.92245	0.82432
1405.99379	0.82415
1404.06513	0.82410
1402.13647	0.82411
1400.20781	0.82386
1398.27914	0.82351
1396.35048	0.82340
1394.42182	0.82367
1392.49316	0.82409
1390.56450	0.82423
1388.63584	0.82415
1386.70718	0.82432
1384.77852	0.82473
1382.84986	0.82480
1380.92120	0.82452
1378.99254	0.82422
1377.06387	0.82395
1375.13521	0.82371
1373.20655	0.82371
1371.27789	0.82384
1369.34923	0.82385
1367.42057	0.82380
1365.49191	0.82359
1363.56325	0.82320
1361.63459	0.82314
1359.70593	0.82341
1357.77727	0.82352
1355.84860	0.82342
1353.91994	0.82339
1351.99128	0.82342
1350.06262	0.82343
1348.13396	0.82343
1346.20530	0.82347
1344.27664	0.82342
1342.34798	0.82316
1340.41932	0.82279
1338.49066	0.82274
1336.56200	0.82309
1334.63333	0.82345
1332.70467	0.82364
1330.77601	0.82373
1328.84735	0.82378
1326.91869	0.82384
1324.99003	0.82390
1323.06137	0.82387
1321.13271	0.82368
1319.20405	0.82348
1317.27539	0.82345
1315.34673	0.82351
1313.41807	0.82361
1311.48940	0.82379
1309.56074	0.82399
1307.63208	0.82411
1305.70342	0.82415
1303.77476	0.82415
1301.84610	0.82416
1299.91744	0.82420
1297.98878	0.82422
1296.06012	0.82418
1294.13146	0.82408
1292.20280	0.82395
1290.27413	0.82386
1288.34547	0.82383
1286.41681	0.82384
1284.48815	0.82379
1282.55949	0.82368
1280.63083	0.82357
1278.70217	0.82351
1276.77351	0.82348
1274.84485	0.82341
1272.91619	0.82330
1270.98753	0.82322
1269.05886	0.82316
1267.13020	0.82308
1265.20154	0.82303
1263.27288	0.82302
1261.34422	0.82306
1259.41556	0.82316
1257.48690	0.82328
1255.55824	0.82330
1253.62958	0.82320
1251.70092	0.82305
1249.77226	0.82291
1247.84359	0.82277
1245.91493	0.82263
1243.98627	0.82248
1242.05761	0.82234
1240.12895	0.82220
1238.20029	0.82206
1236.27163	0.82193
1234.34297	0.82183
1232.41431	0.82174
1230.48565	0.82159
1228.55699	0.82138
1226.62833	0.82116
1224.69966	0.82099
1222.77100	0.82081
1220.84234	0.82058
1218.91368	0.82037
1216.98502	0.82022
1215.05636	0.82008
1213.12770	0.81983
1211.19904	0.81951
1209.27038	0.81918
1207.34172	0.81891
1205.41306	0.81870
1203.48439	0.81851
1201.55573	0.81833
1199.62707	0.81812
1197.69841	0.81789
1195.76975	0.81770
1193.84109	0.81757
1191.91243	0.81744
1189.98377	0.81728
1188.05511	0.81713
1186.12645	0.81700
1184.19779	0.81689
1182.26912	0.81677
1180.34046	0.81651
1178.41180	0.81616
1176.48314	0.81583
1174.55448	0.81548
1172.62582	0.81511
1170.69716	0.81484
1168.76850	0.81468
1166.83984	0.81455
1164.91118	0.81437
1162.98252	0.81418
1161.05385	0.81405
1159.12519	0.81391
1157.19653	0.81370
1155.26787	0.81355
1153.33921	0.81347
1151.41055	0.81337
1149.48189	0.81323
1147.55323	0.81304
1145.62457	0.81282
1143.69591	0.81260
1141.76725	0.81245
1139.83859	0.81232
1137.90992	0.81213
1135.98126	0.81196
1134.05260	0.81188
1132.12394	0.81182
1130.19528	0.81172
1128.26662	0.81155
1126.33796	0.81135
1124.40930	0.81118
1122.48064	0.81104
1120.55198	0.81087
1118.62332	0.81067
1116.69465	0.81043
1114.76599	0.81015
1112.83733	0.80985
1110.90867	0.80958
1108.98001	0.80936
1107.05135	0.80913
1105.12269	0.80890
1103.19403	0.80870
1101.26537	0.80847
1099.33671	0.80818
1097.40805	0.80790
1095.47938	0.80766
1093.55072	0.80740
1091.62206	0.80716
1089.69340	0.80702
1087.76474	0.80692
1085.83608	0.80680
1083.90742	0.80667
1081.97876	0.80655
1080.05010	0.80643
1078.12144	0.80635
1076.19278	0.80629
1074.26411	0.80615
1072.33545	0.80597
1070.40679	0.80588
1068.47813	0.80587
1066.54947	0.80591
1064.62081	0.80599
1062.69215	0.80609
1060.76349	0.80622
1058.83483	0.80635
1056.90617	0.80647
1054.97751	0.80659
1053.04885	0.80674
1051.12018	0.80688
1049.19152	0.80696
1047.26286	0.80695
1045.33420	0.80699
1043.40554	0.80711
1041.47688	0.80723
1039.54822	0.80725
1037.61956	0.80725
1035.69090	0.80730
1033.76224	0.80729
1031.83358	0.80724
1029.90491	0.80722
1027.97625	0.80718
1026.04759	0.80708
1024.11893	0.80694
1022.19027	0.80673
1020.26161	0.80650
1018.33295	0.80635
1016.40429	0.80628
1014.47563	0.80622
1012.54697	0.80621
1010.61831	0.80617
1008.68964	0.80594
1006.76098	0.80561
1004.83232	0.80534
1002.90366	0.80512
1000.97500	0.80489
999.04634	0.80460
997.11768	0.80432
995.18902	0.80408
993.26036	0.80385
991.33170	0.80359
989.40304	0.80328
987.47438	0.80289
985.54571	0.80250
983.61705	0.80215
981.68839	0.80177
979.75973	0.80139
977.83107	0.80108
975.90241	0.80082
973.97375	0.80058
972.04509	0.80031
970.11643	0.79998
968.18777	0.79968
966.25911	0.79952
964.33044	0.79939
962.40178	0.79920
960.47312	0.79898
958.54446	0.79877
956.61580	0.79856
954.68714	0.79833
952.75848	0.79811
950.82982	0.79788
948.90116	0.79763
946.97250	0.79739
945.04384	0.79717
943.11517	0.79694
941.18651	0.79667
939.25785	0.79641
937.32919	0.79620
935.40053	0.79606
933.47187	0.79596
931.54321	0.79582
929.61455	0.79563
927.68589	0.79543
925.75723	0.79523
923.82857	0.79509
921.89990	0.79506
919.97124	0.79503
918.04258	0.79489
916.11392	0.79469
914.18526	0.79445
912.25660	0.79422
910.32794	0.79404
908.39928	0.79386
906.47062	0.79365
904.54196	0.79345
902.61330	0.79328
900.68464	0.79307
898.75597	0.79275
896.82731	0.79242
894.89865	0.79216
892.96999	0.79194
891.04133	0.79177
889.11267	0.79166
887.18401	0.79157
885.25535	0.79153
883.32669	0.79152
881.39803	0.79141
879.46937	0.79122
877.54070	0.79095
875.61204	0.79063
873.68338	0.79033
871.75472	0.79003
869.82606	0.78968
867.89740	0.78931
865.96874	0.78897
864.04008	0.78859
862.11142	0.78811
860.18276	0.78766
858.25410	0.78726
856.32543	0.78686
854.39677	0.78644
852.46811	0.78603
850.53945	0.78568
848.61079	0.78545
846.68213	0.78529
844.75347	0.78514
842.82481	0.78494
840.89615	0.78456
838.96749	0.78408
837.03883	0.78373
835.11016	0.78345
833.18150	0.78307
831.25284	0.78250
829.32418	0.78177
827.39552	0.78090
825.46686	0.77978
823.53820	0.77842
821.60954	0.77698
819.68088	0.77557
817.75222	0.77421
815.82356	0.77285
813.89490	0.77133
811.96623	0.76970
810.03757	0.76815
808.10891	0.76666
806.18025	0.76498
804.25159	0.76295
802.32293	0.76072
800.39427	0.75825
798.46561	0.75538
796.53695	0.75232
794.60829	0.74939
792.67963	0.74661
790.75096	0.74386
788.82230	0.74113
786.89364	0.73848
784.96498	0.73577
783.03632	0.73282
781.10766	0.72976
779.17900	0.72682
777.25034	0.72395
775.32168	0.72102
773.39302	0.71805
771.46436	0.71506
769.53569	0.71206
767.60703	0.70901
765.67837	0.70574
763.74971	0.70222
761.82105	0.69873
759.89239	0.69542
757.96373	0.69213
756.03507	0.68870
754.10641	0.68518
752.17775	0.68175
750.24909	0.67835
748.32042	0.67478
746.39176	0.67111
744.46310	0.66745
742.53444	0.66389
740.60578	0.66063
738.67712	0.65759
736.74846	0.65448
734.81980	0.65123
732.89114	0.64819
730.96248	0.64563
729.03382	0.64351
727.10516	0.64153
725.17649	0.63930
723.24783	0.63651
721.31917	0.63337
719.39051	0.63064
717.46185	0.62858
715.53319	0.62675
713.60453	0.62513
711.67587	0.62385
709.74721	0.62281
707.81855	0.62202
705.88989	0.62145
703.96122	0.62093
702.03256	0.62042
700.10390	0.62004
698.17524	0.61975
696.24658	0.61942
694.31792	0.61908
692.38926	0.61885
690.46060	0.61869
688.53194	0.61848
686.60328	0.61830
684.67462	0.61836
682.74595	0.61871
680.81729	0.61937
678.88863	0.62035
676.95997	0.62148
675.03131	0.62262
673.10265	0.62314
671.17399	0.62180
669.24533	0.62002
667.31667	0.62323
665.38801	0.62830
663.45935	0.63063
661.53068	0.63160
659.60202	0.63251
657.67336	0.63345
655.74470	0.63446
653.81604	0.63575
651.88738	0.63730
649.95872	0.63890
648.03006	0.64064
646.10140	0.64245
644.17274	0.64402
642.24408	0.64524
640.31542	0.64608
638.38675	0.64643
636.45809	0.64633
634.52943	0.64592
632.60077	0.64547
630.67211	0.64498
628.74345	0.64408
626.81479	0.64268
624.88613	0.64170
622.95747	0.64140
621.02881	0.64068
619.10015	0.63915
617.17148	0.63810
615.24282	0.63816
613.31416	0.63854
611.38550	0.63879
609.45684	0.63901
607.52818	0.63975
605.59952	0.64131
603.67086	0.64310
601.74220	0.64470
599.81354	0.64604
597.88488	0.64735
595.95621	0.64869
594.02755	0.65005
592.09889	0.65117
590.17023	0.65194
588.24157	0.65287
586.31291	0.65396
584.38425	0.65464
582.45559	0.65523
580.52693	0.65596
578.59827	0.65658
576.66961	0.65704
574.74094	0.65731
572.81228	0.65715
570.88362	0.65668
568.95496	0.65660
567.02630	0.65730
565.09764	0.65847
563.16898	0.65939
561.24032	0.65944
559.31166	0.65891
557.38300	0.65862
555.45434	0.65885
553.52568	0.65934
551.59701	0.65978
549.66835	0.65990
547.73969	0.65972
545.81103	0.65962
543.88237	0.65987
541.95371	0.66032
540.02505	0.66063
538.09639	0.66021
536.16773	0.65903
534.23907	0.65822
532.31041	0.65810
530.38174	0.65786
528.45308	0.65750
526.52442	0.65750
524.59576	0.65745
522.66710	0.65703
520.73844	0.65661
518.80978	0.65624
516.88112	0.65587
514.95246	0.65565
513.02380	0.65567
511.09514	0.65565
509.16647	0.65516
507.23781	0.65459
505.30915	0.65442
503.38049	0.65434
501.45183	0.65425
499.52317	0.65415
497.59451	0.65417
495.66585	0.65418
493.73719	0.65339
491.80853	0.65235
489.87987	0.65244
487.95120	0.65325
486.02254	0.65358
484.09388	0.65334
482.16522	0.65314
480.23656	0.65318
478.30790	0.65318
476.37924	0.65308
474.45058	0.65298
472.52192	0.65268
470.59326	0.65253
468.66460	0.65306
466.73594	0.65365
464.80727	0.65371
462.87861	0.65340
460.94995	0.65293
459.02129	0.65255
457.09263	0.65226
455.16397	0.65184
453.23531	0.65150
451.30665	0.65168
449.37799	0.65228
447.44933	0.65278
445.52067	0.65291
443.59200	0.65279
441.66334	0.65258
439.73468	0.65252
437.80602	0.65268
435.87736	0.65275
433.94870	0.65279
432.02004	0.65292
430.09138	0.65275
428.16272	0.65243
426.23406	0.65249
424.30540	0.65274
422.37673	0.65262
420.44807	0.65226
418.51941	0.65232
416.59075	0.65256
414.66209	0.65227
412.73343	0.65179
410.80477	0.65161
408.87611	0.65160
406.94745	0.65190
405.01879	0.65251
403.09013	0.65280
401.16146	0.65246
399.23280	0.65202
