4000.04268	0.81896
3998.11402	0.81903
3996.18536	0.81907
3994.25670	0.81903
3992.32804	0.81897
3990.39938	0.81888
3988.47072	0.81879
3986.54206	0.81884
3984.61340	0.81891
3982.68474	0.81881
3980.75607	0.81863
3978.82741	0.81864
3976.89875	0.81879
3974.97009	0.81884
3973.04143	0.81878
3971.11277	0.81875
3969.18411	0.81875
3967.25545	0.81870
3965.32679	0.81862
3963.39813	0.81856
3961.46947	0.81854
3959.54080	0.81850
3957.61214	0.81847
3955.68348	0.81852
3953.75482	0.81862
3951.82616	0.81870
3949.89750	0.81875
3947.96884	0.81867
3946.04018	0.81860
3944.11152	0.81862
3942.18286	0.81853
3940.25420	0.81834
3938.32553	0.81825
3936.39687	0.81841
3934.46821	0.81873
3932.53955	0.81884
3930.61089	0.81866
3928.68223	0.81849
3926.75357	0.81855
3924.82491	0.81858
3922.89625	0.81848
3920.96759	0.81844
3919.03893	0.81843
3917.11026	0.81829
3915.18160	0.81805
3913.25294	0.81787
3911.32428	0.81783
3909.39562	0.81798
3907.46696	0.81829
3905.53830	0.81857
3903.60964	0.81861
3901.68098	0.81846
3899.75232	0.81825
3897.82366	0.81800
3895.89500	0.81794
3893.96633	0.81812
3892.03767	0.81815
3890.10901	0.81785
3888.18035	0.81784
3886.25169	0.81827
3884.32303	0.81862
3882.39437	0.81864
3880.46571	0.81834
3878.53705	0.81797
3876.60839	0.81806
3874.67973	0.81840
3872.75106	0.81846
3870.82240	0.81821
3868.89374	0.81797
3866.96508	0.81799
3865.03642	0.81816
3863.10776	0.81804
3861.17910	0.81771
3859.25044	0.81762
3857.32178	0.81746
3855.39312	0.81666
3853.46446	0.81622
3851.53579	0.81689
3849.60713	0.81733
3847.67847	0.81760
3845.74981	0.81794
3843.82115	0.81815
3841.89249	0.81821
3839.96383	0.81822
3838.03517	0.81827
3836.10651	0.81834
3834.17785	0.81804
3832.24919	0.81745
3830.32052	0.81712
3828.39186	0.81719
3826.46320	0.81734
3824.53454	0.81748
3822.60588	0.81784
3820.67722	0.81811
3818.74856	0.81783
3816.81990	0.81723
3814.89124	0.81667
3812.96258	0.81638
3811.03392	0.81636
3809.10526	0.81646
3807.17659	0.81661
3805.24793	0.81688
3803.31927	0.81707
3801.39061	0.81697
3799.46195	0.81686
3797.53329	0.81673
3795.60463	0.81636
3793.67597	0.81602
3791.74731	0.81593
3789.81865	0.81597
3787.88999	0.81610
3785.96132	0.81618
3784.03266	0.81611
3782.10400	0.81629
3780.17534	0.81669
3778.24668	0.81644
3776.31802	0.81578
3774.38936	0.81559
3772.46070	0.81586
3770.53204	0.81610
3768.60338	0.81607
3766.67472	0.81597
3764.74605	0.81584
3762.81739	0.81583
3760.88873	0.81616
3758.96007	0.81647
3757.03141	0.81641
3755.10275	0.81615
3753.17409	0.81585
3751.24543	0.81558
3749.31677	0.81558
3747.38811	0.81532
3745.45945	0.81462
3743.53078	0.81503
3741.60212	0.81650
3739.67346	0.81765
3737.74480	0.81819
3735.81614	0.81811
3733.88748	0.81737
3731.95882	0.81645
3730.03016	0.81599
3728.10150	0.81606
3726.17284	0.81633
3724.24418	0.81644
3722.31552	0.81623
3720.38685	0.81583
3718.45819	0.81550
3716.52953	0.81530
3714.60087	0.81527
3712.67221	0.81551
3710.74355	0.81569
3708.81489	0.81542
3706.88623	0.81505
3704.95757	0.81496
3703.02891	0.81498
3701.10025	0.81483
3699.17158	0.81475
3697.24292	0.81494
3695.31426	0.81523
3693.38560	0.81569
3691.45694	0.81661
3689.52828	0.81721
3687.59962	0.81646
3685.67096	0.81536
3683.74230	0.81483
3681.81364	0.81484
3679.88498	0.81502
3677.95631	0.81500
3676.02765	0.81484
3674.09899	0.81469
3672.17033	0.81442
3670.24167	0.81410
3668.31301	0.81384
3666.38435	0.81357
3664.45569	0.81351
3662.52703	0.81396
3660.59837	0.81449
3658.66971	0.81427
3656.74104	0.81339
3654.81238	0.81308
3652.88372	0.81380
3650.95506	0.81458
3649.02640	0.81400
3647.09774	0.81266
3645.16908	0.81164
3643.24042	0.81088
3641.31176	0.81028
3639.38310	0.80983
3637.45444	0.80954
3635.52578	0.80931
3633.59711	0.80891
3631.66845	0.80815
3629.73979	0.80709
3627.81113	0.80644
3625.88247	0.80630
3623.95381	0.80630
3622.02515	0.80632
3620.09649	0.80590
3618.16783	0.80513
3616.23917	0.80462
3614.31051	0.80407
3612.38184	0.80320
3610.45318	0.80247
3608.52452	0.80227
3606.59586	0.80243
3604.66720	0.80263
3602.73854	0.80289
3600.80988	0.80314
3598.88122	0.80294
3596.95256	0.80235
3595.02390	0.80199
3593.09524	0.80197
3591.16657	0.80206
3589.23791	0.80267
3587.30925	0.80400
3585.38059	0.80473
3583.45193	0.80441
3581.52327	0.80377
3579.59461	0.80328
3577.66595	0.80313
3575.73729	0.80330
3573.80863	0.80372
3571.87997	0.80449
3569.95130	0.80537
3568.02264	0.80584
3566.09398	0.80586
3564.16532	0.80599
3562.23666	0.80630
3560.30800	0.80629
3558.37934	0.80596
3556.45068	0.80585
3554.52202	0.80621
3552.59336	0.80668
3550.66470	0.80687
3548.73604	0.80740
3546.80737	0.80857
3544.87871	0.80906
3542.95005	0.80808
3541.02139	0.80670
3539.09273	0.80618
3537.16407	0.80630
3535.23541	0.80582
3533.30675	0.80486
3531.37809	0.80439
3529.44943	0.80436
3527.52077	0.80461
3525.59210	0.80521
3523.66344	0.80526
3521.73478	0.80427
3519.80612	0.80330
3517.87746	0.80309
3515.94880	0.80343
3514.02014	0.80374
3512.09148	0.80344
3510.16282	0.80290
3508.23416	0.80282
3506.30550	0.80360
3504.37683	0.80499
3502.44817	0.80561
3500.51951	0.80527
3498.59085	0.80514
3496.66219	0.80517
3494.73353	0.80485
3492.80487	0.80453
3490.87621	0.80462
3488.94755	0.80513
3487.01889	0.80550
3485.09023	0.80539
3483.16156	0.80566
3481.23290	0.80658
3479.30424	0.80683
3477.37558	0.80612
3475.44692	0.80561
3473.51826	0.80605
3471.58960	0.80759
3469.66094	0.80933
3467.73228	0.80966
3465.80362	0.80845
3463.87496	0.80735
3461.94630	0.80725
3460.01763	0.80724
3458.08897	0.80665
3456.16031	0.80610
3454.23165	0.80604
3452.30299	0.80618
3450.37433	0.80647
3448.44567	0.80690
3446.51701	0.80708
3444.58835	0.80692
3442.65969	0.80685
3440.73103	0.80745
3438.80236	0.80895
3436.87370	0.81033
3434.94504	0.81040
3433.01638	0.80970
3431.08772	0.80935
3429.15906	0.80898
3427.23040	0.80808
3425.30174	0.80728
3423.37308	0.80711
3421.44442	0.80725
3419.51576	0.80716
3417.58709	0.80707
3415.65843	0.80760
3413.72977	0.80838
3411.80111	0.80875
3409.87245	0.80865
3407.94379	0.80818
3406.01513	0.80797
3404.08647	0.80923
3402.15781	0.81129
3400.22915	0.81170
3398.30049	0.81015
3396.37182	0.80902
3394.44316	0.80968
3392.51450	0.81060
3390.58584	0.80984
3388.65718	0.80807
3386.72852	0.80696
3384.79986	0.80676
3382.87120	0.80703
3380.94254	0.80745
3379.01388	0.80766
3377.08522	0.80757
3375.15656	0.80744
3373.22789	0.80817
3371.29923	0.81008
3369.37057	0.81157
3367.44191	0.81109
3365.51325	0.80925
3363.58459	0.80793
3361.65593	0.80767
3359.72727	0.80743
3357.79861	0.80682
3355.86995	0.80663
3353.94129	0.80754
3352.01262	0.80890
3350.08396	0.80894
3348.15530	0.80765
3346.22664	0.80698
3344.29798	0.80738
3342.36932	0.80799
3340.44066	0.80868
3338.51200	0.80889
3336.58334	0.80788
3334.65468	0.80647
3332.72602	0.80575
3330.79735	0.80573
3328.86869	0.80636
3326.94003	0.80726
3325.01137	0.80729
3323.08271	0.80635
3321.15405	0.80553
3319.22539	0.80520
3317.29673	0.80510
3315.36807	0.80515
3313.43941	0.80553
3311.51075	0.80681
3309.58208	0.80892
3307.65342	0.81062
3305.72476	0.81050
3303.79610	0.80847
3301.86744	0.80622
3299.93878	0.80552
3298.01012	0.80637
3296.08146	0.80752
3294.15280	0.80810
3292.22414	0.80765
3290.29548	0.80612
3288.36682	0.80457
3286.43815	0.80387
3284.50949	0.80367
3282.58083	0.80360
3280.65217	0.80363
3278.72351	0.80393
3276.79485	0.80471
3274.86619	0.80583
3272.93753	0.80707
3271.00887	0.80742
3269.08021	0.80599
3267.15155	0.80402
3265.22288	0.80298
3263.29422	0.80275
3261.36556	0.80289
3259.43690	0.80339
3257.50824	0.80417
3255.57958	0.80440
3253.65092	0.80380
3251.72226	0.80350
3249.79360	0.80440
3247.86494	0.80558
3245.93628	0.80552
3244.00761	0.80455
3242.07895	0.80395
3240.15029	0.80389
3238.22163	0.80430
3236.29297	0.80568
3234.36431	0.80721
3232.43565	0.80707
3230.50699	0.80561
3228.57833	0.80462
3226.64967	0.80441
3224.72101	0.80446
3222.79234	0.80468
3220.86368	0.80508
3218.93502	0.80536
3217.00636	0.80543
3215.07770	0.80552
3213.14904	0.80555
3211.22038	0.80556
3209.29172	0.80575
3207.36306	0.80597
3205.43440	0.80603
3203.50574	0.80607
3201.57708	0.80617
3199.64841	0.80630
3197.71975	0.80646
3195.79109	0.80666
3193.86243	0.80689
3191.93377	0.80716
3190.00511	0.80741
3188.07645	0.80752
3186.14779	0.80756
3184.21913	0.80769
3182.29047	0.80792
3180.36181	0.80814
3178.43314	0.80828
3176.50448	0.80840
3174.57582	0.80854
3172.64716	0.80869
3170.71850	0.80886
3168.78984	0.80903
3166.86118	0.80922
3164.93252	0.80945
3163.00386	0.80971
3161.07520	0.80996
3159.14654	0.81025
3157.21787	0.81089
3155.28921	0.81222
3153.36055	0.81350
3151.43189	0.81336
3149.50323	0.81217
3147.57457	0.81135
3145.64591	0.81122
3143.71725	0.81167
3141.78859	0.81286
3139.85993	0.81392
3137.93127	0.81370
3136.00260	0.81278
3134.07394	0.81251
3132.14528	0.81304
3130.21662	0.81355
3128.28796	0.81350
3126.35930	0.81342
3124.43064	0.81418
3122.50198	0.81599
3120.57332	0.81794
3118.64466	0.81899
3116.71600	0.81885
3114.78734	0.81767
3112.85867	0.81648
3110.93001	0.81650
3109.00135	0.81696
3107.07269	0.81656
3105.14403	0.81592
3103.21537	0.81614
3101.28671	0.81687
3099.35805	0.81703
3097.42939	0.81656
3095.50073	0.81634
3093.57207	0.81693
3091.64340	0.81793
3089.71474	0.81853
3087.78608	0.81885
3085.85742	0.81950
3083.92876	0.82015
3082.00010	0.82065
3080.07144	0.82105
3078.14278	0.82068
3076.21412	0.81942
3074.28546	0.81828
3072.35680	0.81804
3070.42813	0.81870
3068.49947	0.81965
3066.57081	0.81982
3064.64215	0.81909
3062.71349	0.81834
3060.78483	0.81810
3058.85617	0.81844
3056.92751	0.81897
3054.99885	0.81925
3053.07019	0.81943
3051.14153	0.81949
3049.21286	0.81932
3047.28420	0.81952
3045.35554	0.82029
3043.42688	0.82086
3041.49822	0.82055
3039.56956	0.81963
3037.64090	0.81927
3035.71224	0.81982
3033.78358	0.82007
3031.85492	0.81951
3029.92626	0.81876
3027.99760	0.81842
3026.06893	0.81853
3024.14027	0.81864
3022.21161	0.81869
3020.28295	0.81908
3018.35429	0.81979
3016.42563	0.82067
3014.49697	0.82138
3012.56831	0.82128
3010.63965	0.82015
3008.71099	0.81877
3006.78233	0.81801
3004.85366	0.81786
3002.92500	0.81787
3000.99634	0.81818
2999.06768	0.81881
2997.13902	0.81920
2995.21036	0.81941
2993.28170	0.81964
2991.35304	0.81927
2989.42438	0.81842
2987.49572	0.81795
2985.56706	0.81814
2983.63839	0.81893
2981.70973	0.81984
2979.78107	0.82003
2977.85241	0.81964
2975.92375	0.81941
2973.99509	0.81916
2972.06643	0.81853
2970.13777	0.81790
2968.20911	0.81757
2966.28045	0.81753
2964.35179	0.81765
2962.42313	0.81760
2960.49446	0.81728
2958.56580	0.81701
2956.63714	0.81719
2954.70848	0.81787
2952.77982	0.81839
2950.85116	0.81844
2948.92250	0.81871
2946.99384	0.81930
2945.06518	0.81937
2943.13652	0.81855
2941.20786	0.81739
2939.27919	0.81659
2937.35053	0.81617
2935.42187	0.81588
2933.49321	0.81591
2931.56455	0.81620
2929.63589	0.81594
2927.70723	0.81472
2925.77857	0.81334
2923.84991	0.81238
2921.92125	0.81187
2919.99259	0.81196
2918.06392	0.81270
2916.13526	0.81392
2914.20660	0.81511
2912.27794	0.81562
2910.34928	0.81552
2908.42062	0.81540
2906.49196	0.81557
2904.56330	0.81587
2902.63464	0.81601
2900.70598	0.81612
2898.77732	0.81658
2896.84865	0.81714
2894.91999	0.81720
2892.99133	0.81685
2891.06267	0.81662
2889.13401	0.81660
2887.20535	0.81665
2885.27669	0.81676
2883.34803	0.81690
2881.41937	0.81704
2879.49071	0.81717
2877.56205	0.81759
2875.63339	0.81849
2873.70472	0.81905
2871.77606	0.81850
2869.84740	0.81759
2867.91874	0.81721
2865.99008	0.81710
2864.06142	0.81702
2862.13276	0.81708
2860.20410	0.81700
2858.27544	0.81636
2856.34678	0.81543
2854.41812	0.81459
2852.48945	0.81392
2850.56079	0.81378
2848.63213	0.81435
2846.70347	0.81510
2844.77481	0.81574
2842.84615	0.81663
2840.91749	0.81795
2838.98883	0.81892
2837.06017	0.81893
2835.13151	0.81849
2833.20285	0.81808
2831.27418	0.81773
2829.34552	0.81754
2827.41686	0.81752
2825.48820	0.81763
2823.55954	0.81772
2821.63088	0.81774
2819.70222	0.81775
2817.77356	0.81775
2815.84490	0.81774
2813.91624	0.81786
2811.98758	0.81815
2810.05891	0.81830
2808.13025	0.81808
2806.20159	0.81783
2804.27293	0.81778
2802.34427	0.81798
2800.41561	0.81846
2798.48695	0.81881
2796.55829	0.81864
2794.62963	0.81833
2792.70097	0.81842
2790.77231	0.81876
2788.84365	0.81875
2786.91498	0.81826
2784.98632	0.81783
2783.05766	0.81771
2781.12900	0.81773
2779.20034	0.81790
2777.27168	0.81834
2775.34302	0.81870
2773.41436	0.81857
2771.48570	0.81827
2769.55704	0.81815
2767.62838	0.81813
2765.69971	0.81806
2763.77105	0.81795
2761.84239	0.81786
2759.91373	0.81782
2757.98507	0.81782
2756.05641	0.81781
2754.12775	0.81781
2752.19909	0.81797
2750.27043	0.81827
2748.34177	0.81839
2746.41311	0.81814
2744.48444	0.81778
2742.55578	0.81761
2740.62712	0.81765
2738.69846	0.81775
2736.76980	0.81772
2734.84114	0.81759
2732.91248	0.81753
2730.98382	0.81760
2729.05516	0.81788
2727.12650	0.81825
2725.19784	0.81833
2723.26917	0.81812
2721.34051	0.81783
2719.41185	0.81758
2717.48319	0.81748
2715.55453	0.81744
2713.62587	0.81741
2711.69721	0.81744
2709.76855	0.81748
2707.83989	0.81744
2705.91123	0.81735
2703.98257	0.81729
2702.05391	0.81730
2700.12524	0.81736
2698.19658	0.81739
2696.26792	0.81735
2694.33926	0.81728
2692.41060	0.81725
2690.48194	0.81723
2688.55328	0.81717
2686.62462	0.81715
2684.69596	0.81726
2682.76730	0.81756
2680.83864	0.81785
2678.90997	0.81789
2676.98131	0.81771
2675.05265	0.81755
2673.12399	0.81745
2671.19533	0.81733
2669.26667	0.81724
2667.33801	0.81720
2665.40935	0.81717
2663.48069	0.81714
2661.55203	0.81715
2659.62337	0.81717
2657.69470	0.81716
2655.76604	0.81714
2653.83738	0.81712
2651.90872	0.81710
2649.98006	0.81706
2648.05140	0.81704
2646.12274	0.81703
2644.19408	0.81701
2642.26542	0.81705
2640.33676	0.81716
2638.40810	0.81724
2636.47943	0.81722
2634.55077	0.81717
2632.62211	0.81712
2630.69345	0.81708
2628.76479	0.81706
2626.83613	0.81705
2624.90747	0.81703
2622.97881	0.81701
2621.05015	0.81702
2619.12149	0.81702
2617.19283	0.81702
2615.26417	0.81700
2613.33550	0.81697
2611.40684	0.81695
2609.47818	0.81693
2607.54952	0.81695
2605.62086	0.81700
2603.69220	0.81698
2601.76354	0.81693
2599.83488	0.81692
2597.90622	0.81696
2595.97756	0.81699
2594.04890	0.81694
2592.12023	0.81690
2590.19157	0.81695
2588.26291	0.81700
2586.33425	0.81698
2584.40559	0.81696
2582.47693	0.81697
2580.54827	0.81698
2578.61961	0.81700
2576.69095	0.81702
2574.76229	0.81701
2572.83363	0.81698
2570.90496	0.81695
2568.97630	0.81695
2567.04764	0.81698
2565.11898	0.81704
2563.19032	0.81708
2561.26166	0.81708
2559.33300	0.81706
2557.40434	0.81701
2555.47568	0.81698
2553.54702	0.81697
2551.61836	0.81698
2549.68969	0.81699
2547.76103	0.81703
2545.83237	0.81711
2543.90371	0.81717
2541.97505	0.81716
2540.04639	0.81714
2538.11773	0.81717
2536.18907	0.81721
2534.26041	0.81725
2532.33175	0.81728
2530.40309	0.81730
2528.47443	0.81734
2526.54576	0.81737
2524.61710	0.81737
2522.68844	0.81735
2520.75978	0.81734
2518.83112	0.81732
2516.90246	0.81730
2514.97380	0.81730
2513.04514	0.81731
2511.11648	0.81729
2509.18782	0.81727
2507.25916	0.81724
2505.33049	0.81721
2503.40183	0.81717
2501.47317	0.81715
2499.54451	0.81718
2497.61585	0.81725
2495.68719	0.81729
2493.75853	0.81729
2491.82987	0.81730
2489.90121	0.81737
2487.97255	0.81742
2486.04389	0.81740
2484.11522	0.81737
2482.18656	0.81738
2480.25790	0.81739
2478.32924	0.81738
2476.40058	0.81739
2474.47192	0.81738
2472.54326	0.81738
2470.61460	0.81742
2468.68594	0.81745
2466.75728	0.81742
2464.82862	0.81739
2462.89995	0.81742
2460.97129	0.81746
2459.04263	0.81747
2457.11397	0.81748
2455.18531	0.81746
2453.25665	0.81742
2451.32799	0.81744
2449.39933	0.81750
2447.47067	0.81754
2445.54201	0.81755
2443.61335	0.81753
2441.68469	0.81748
2439.75602	0.81744
2437.82736	0.81746
2435.89870	0.81753
2433.97004	0.81756
2432.04138	0.81754
2430.11272	0.81753
2428.18406	0.81756
2426.25540	0.81759
2424.32674	0.81760
2422.39808	0.81759
2420.46942	0.81757
2418.54075	0.81756
2416.61209	0.81757
2414.68343	0.81757
2412.75477	0.81757
2410.82611	0.81759
2408.89745	0.81759
2406.96879	0.81758
2405.04013	0.81758
2403.11147	0.81761
2401.18281	0.81764
2399.25415	0.81765
2397.32548	0.81763
2395.39682	0.81764
2393.46816	0.81769
2391.53950	0.81773
2389.61084	0.81773
2387.68218	0.81777
2385.75352	0.81791
2383.82486	0.81816
2381.89620	0.81849
2379.96754	0.81881
2378.03888	0.81895
2376.11021	0.81892
2374.18155	0.81874
2372.25289	0.81837
2370.32423	0.81785
2368.39557	0.81733
2366.46691	0.81690
2364.53825	0.81657
2362.60959	0.81636
2360.68093	0.81637
2358.75227	0.81679
2356.82361	0.81758
2354.89495	0.81847
2352.96628	0.81933
2351.03762	0.82001
2349.10896	0.82033
2347.18030	0.82025
2345.25164	0.81983
2343.32298	0.81935
2341.39432	0.81910
2339.46566	0.81906
2337.53700	0.81908
2335.60834	0.81903
2333.67968	0.81895
2331.75101	0.81897
2329.82235	0.81909
2327.89369	0.81915
2325.96503	0.81909
2324.03637	0.81908
2322.10771	0.81909
2320.17905	0.81901
2318.25039	0.81895
2316.32173	0.81905
2314.39307	0.81924
2312.46441	0.81938
2310.53574	0.81941
2308.60708	0.81935
2306.67842	0.81927
2304.74976	0.81915
2302.82110	0.81905
2300.89244	0.81893
2298.96378	0.81876
2297.03512	0.81867
2295.10646	0.81868
2293.17780	0.81868
2291.24914	0.81862
2289.32047	0.81855
2287.39181	0.81847
2285.46315	0.81837
2283.53449	0.81834
2281.60583	0.81836
2279.67717	0.81837
2277.74851	0.81837
2275.81985	0.81837
2273.89119	0.81842
2271.96253	0.81849
2270.03387	0.81848
2268.10521	0.81843
2266.17654	0.81842
2264.24788	0.81844
2262.31922	0.81844
2260.39056	0.81843
2258.46190	0.81842
2256.53324	0.81841
2254.60458	0.81839
2252.67592	0.81837
2250.74726	0.81835
2248.81860	0.81833
2246.88994	0.81834
2244.96127	0.81834
2243.03261	0.81830
2241.10395	0.81826
2239.17529	0.81824
2237.24663	0.81822
2235.31797	0.81820
2233.38931	0.81817
2231.46065	0.81810
2229.53199	0.81806
2227.60333	0.81805
2225.67467	0.81804
2223.74600	0.81801
2221.81734	0.81799
2219.88868	0.81798
2217.96002	0.81795
2216.03136	0.81788
2214.10270	0.81779
2212.17404	0.81777
2210.24538	0.81777
2208.31672	0.81775
2206.38806	0.81772
2204.45940	0.81770
2202.53073	0.81770
2200.60207	0.81771
2198.67341	0.81771
2196.74475	0.81769
2194.81609	0.81767
2192.88743	0.81765
2190.95877	0.81761
2189.03011	0.81761
2187.10145	0.81765
2185.17279	0.81766
2183.24413	0.81762
2181.31547	0.81757
2179.38680	0.81753
2177.45814	0.81753
2175.52948	0.81758
2173.60082	0.81763
2171.67216	0.81766
2169.74350	0.81766
2167.81484	0.81767
2165.88618	0.81770
2163.95752	0.81772
2162.02886	0.81773
2160.10020	0.81774
2158.17153	0.81775
2156.24287	0.81775
2154.31421	0.81776
2152.38555	0.81778
2150.45689	0.81779
2148.52823	0.81777
2146.59957	0.81777
2144.67091	0.81779
2142.74225	0.81781
2140.81359	0.81785
2138.88493	0.81788
2136.95626	0.81789
2135.02760	0.81791
2133.09894	0.81791
2131.17028	0.81790
2129.24162	0.81788
2127.31296	0.81785
2125.38430	0.81781
2123.45564	0.81779
2121.52698	0.81779
2119.59832	0.81782
2117.66966	0.81787
2115.74099	0.81789
2113.81233	0.81791
2111.88367	0.81791
2109.95501	0.81790
2108.02635	0.81795
2106.09769	0.81801
2104.16903	0.81803
2102.24037	0.81801
2100.31171	0.81800
2098.38305	0.81797
2096.45439	0.81793
2094.52573	0.81797
2092.59706	0.81806
2090.66840	0.81808
2088.73974	0.81805
2086.81108	0.81804
2084.88242	0.81805
2082.95376	0.81803
2081.02510	0.81800
2079.09644	0.81797
2077.16778	0.81797
2075.23912	0.81798
2073.31046	0.81800
2071.38179	0.81804
2069.45313	0.81809
2067.52447	0.81809
2065.59581	0.81808
2063.66715	0.81809
2061.73849	0.81809
2059.80983	0.81807
2057.88117	0.81801
2055.95251	0.81798
2054.02385	0.81800
2052.09519	0.81802
2050.16652	0.81802
2048.23786	0.81802
2046.30920	0.81806
2044.38054	0.81811
2042.45188	0.81812
2040.52322	0.81808
2038.59456	0.81802
2036.66590	0.81797
2034.73724	0.81795
2032.80858	0.81796
2030.87992	0.81798
2028.95125	0.81803
2027.02259	0.81808
2025.09393	0.81807
2023.16527	0.81802
2021.23661	0.81801
2019.30795	0.81810
2017.37929	0.81817
2015.45063	0.81809
2013.52197	0.81798
2011.59331	0.81799
2009.66465	0.81806
2007.73599	0.81809
2005.80732	0.81803
2003.87866	0.81797
2001.95000	0.81797
2000.02134	0.81799
1998.09268	0.81798
1996.16402	0.81804
1994.23536	0.81825
1992.30670	0.81843
1990.37804	0.81835
1988.44938	0.81817
1986.52072	0.81807
1984.59205	0.81801
1982.66339	0.81795
1980.73473	0.81792
1978.80607	0.81794
1976.87741	0.81799
1974.94875	0.81800
1973.02009	0.81797
1971.09143	0.81802
1969.16277	0.81825
1967.23411	0.81840
1965.30545	0.81829
1963.37678	0.81813
1961.44812	0.81805
1959.51946	0.81799
1957.59080	0.81798
1955.66214	0.81803
1953.73348	0.81804
1951.80482	0.81800
1949.87616	0.81800
1947.94750	0.81811
1946.01884	0.81842
1944.09018	0.81879
1942.16151	0.81881
1940.23285	0.81839
1938.30419	0.81806
1936.37553	0.81799
1934.44687	0.81801
1932.51821	0.81800
1930.58955	0.81798
1928.66089	0.81801
1926.73223	0.81818
1924.80357	0.81854
1922.87491	0.81877
1920.94625	0.81873
1919.01758	0.81871
1917.08892	0.81856
1915.16026	0.81824
1913.23160	0.81814
1911.30294	0.81834
1909.37428	0.81849
1907.44562	0.81837
1905.51696	0.81817
1903.58830	0.81805
1901.65964	0.81803
1899.73098	0.81806
1897.80231	0.81818
1895.87365	0.81831
1893.94499	0.81834
1892.01633	0.81848
1890.08767	0.81870
1888.15901	0.81855
1886.23035	0.81823
1884.30169	0.81811
1882.37303	0.81810
1880.44437	0.81809
1878.51571	0.81808
1876.58704	0.81807
1874.65838	0.81813
1872.72972	0.81851
1870.80106	0.81938
1868.87240	0.82000
1866.94374	0.81954
1865.01508	0.81867
1863.08642	0.81822
1861.15776	0.81815
1859.22910	0.81814
1857.30044	0.81810
1855.37177	0.81803
1853.44311	0.81797
1851.51445	0.81803
1849.58579	0.81834
1847.65713	0.81891
1845.72847	0.81957
1843.79981	0.81961
1841.87115	0.81891
1839.94249	0.81839
1838.01383	0.81832
1836.08517	0.81832
1834.15651	0.81845
1832.22784	0.81911
1830.29918	0.81988
1828.37052	0.81988
1826.44186	0.81952
1824.51320	0.81913
1822.58454	0.81858
1820.65588	0.81820
1818.72722	0.81814
1816.79856	0.81814
1814.86990	0.81824
1812.94124	0.81862
1811.01257	0.81901
1809.08391	0.81894
1807.15525	0.81862
1805.22659	0.81855
1803.29793	0.81897
1801.36927	0.81953
1799.44061	0.81965
1797.51195	0.81950
1795.58329	0.81973
1793.65463	0.82038
1791.72597	0.82041
1789.79730	0.81947
1787.86864	0.81878
1785.93998	0.81874
1784.01132	0.81897
1782.08266	0.81925
1780.15400	0.81934
1778.22534	0.81928
1776.29668	0.81969
1774.36802	0.82082
1772.43936	0.82173
1770.51070	0.82126
1768.58203	0.82015
1766.65337	0.81936
1764.72471	0.81930
1762.79605	0.81978
1760.86739	0.81997
1758.93873	0.81986
1757.01007	0.81973
1755.08141	0.81959
1753.15275	0.81998
1751.22409	0.82106
1749.29543	0.82166
1747.36677	0.82122
1745.43810	0.82062
1743.50944	0.82042
1741.58078	0.82053
1739.65212	0.82052
1737.72346	0.82049
1735.79480	0.82118
1733.86614	0.82197
1731.93748	0.82147
1730.00882	0.82044
1728.08016	0.81955
1726.15150	0.81916
1724.22283	0.81932
1722.29417	0.81981
1720.36551	0.82103
1718.43685	0.82291
1716.50819	0.82344
1714.57953	0.82210
1712.65087	0.82078
1710.72221	0.82031
1708.79355	0.82079
1706.86489	0.82174
1704.93623	0.82224
1703.00756	0.82264
1701.07890	0.82381
1699.15024	0.82464
1697.22158	0.82399
1695.29292	0.82228
1693.36426	0.82072
1691.43560	0.82033
1689.50694	0.82075
1687.57828	0.82171
1685.64962	0.82355
1683.72096	0.82433
1681.79229	0.82266
1679.86363	0.82116
1677.93497	0.82082
1676.00631	0.82133
1674.07765	0.82181
1672.14899	0.82225
1670.22033	0.82250
1668.29167	0.82144
1666.36301	0.82025
1664.43435	0.82026
1662.50569	0.82046
1660.57703	0.81982
1658.64836	0.81942
1656.71970	0.82041
1654.79104	0.82291
1652.86238	0.82413
1650.93372	0.82288
1649.00506	0.82291
1647.07640	0.82327
1645.14774	0.82156
1643.21908	0.81972
1641.29042	0.81931
1639.36176	0.82026
1637.43309	0.82200
1635.50443	0.82238
1633.57577	0.82055
1631.64711	0.81931
1629.71845	0.81943
1627.78979	0.81997
1625.86113	0.82044
1623.93247	0.82078
1622.00381	0.82037
1620.07515	0.82005
1618.14649	0.82080
1616.21782	0.82107
1614.28916	0.81999
1612.36050	0.81929
1610.43184	0.81932
1608.50318	0.81922
1606.57452	0.81865
1604.64586	0.81800
1602.71720	0.81732
1600.78854	0.81641
1598.85988	0.81539
1596.93122	0.81434
1595.00255	0.81286
1593.07389	0.81057
1591.14523	0.80757
1589.21657	0.80415
1587.28791	0.80075
1585.35925	0.79799
1583.43059	0.79630
1581.50193	0.79599
1579.57327	0.79737
1577.64461	0.80055
1575.71595	0.80399
1573.78729	0.80599
1571.85862	0.80838
1569.92996	0.81169
1568.00130	0.81373
1566.07264	0.81463
1564.14398	0.81575
1562.21532	0.81778
1560.28666	0.82178
1558.35800	0.82428
1556.42934	0.82191
1554.50068	0.81968
1552.57202	0.81864
1550.64335	0.81826
1548.71469	0.81805
1546.78603	0.81846
1544.85737	0.82014
1542.92871	0.82263
1541.00005	0.82427
1539.07139	0.82238
1537.14273	0.81992
1535.21407	0.81972
1533.28541	0.82031
1531.35675	0.82000
1529.42808	0.82003
1527.49942	0.82108
1525.57076	0.82239
1523.64210	0.82394
1521.71344	0.82525
1519.78478	0.82528
1517.85612	0.82488
1515.92746	0.82404
1513.99880	0.82299
1512.07014	0.82309
1510.14148	0.82498
1508.21281	0.82781
1506.28415	0.82716
1504.35549	0.82335
1502.42683	0.82137
1500.49817	0.82143
1498.56951	0.82229
1496.64085	0.82217
1494.71219	0.82108
1492.78353	0.82104
1490.85487	0.82239
1488.92621	0.82301
1486.99755	0.82168
1485.06888	0.82019
1483.14022	0.81964
1481.21156	0.81968
1479.28290	0.81998
1477.35424	0.82086
1475.42558	0.82227
1473.49692	0.82306
1471.56826	0.82177
1469.63960	0.81988
1467.71094	0.81939
1465.78228	0.81996
1463.85361	0.82005
1461.92495	0.82013
1459.99629	0.82173
1458.06763	0.82408
1456.13897	0.82344
1454.21031	0.82096
1452.28165	0.81959
1450.35299	0.81940
1448.42433	0.81957
1446.49567	0.81915
1444.56701	0.81841
1442.63834	0.81802
1440.70968	0.81822
1438.78102	0.81916
1436.85236	0.82002
1434.92370	0.81952
1432.99504	0.81888
1431.06638	0.81890
1429.13772	0.81878
1427.20906	0.81849
1425.28040	0.81865
1423.35174	0.81900
1421.42307	0.81963
1419.49441	0.82049
1417.56575	0.82008
1415.63709	0.81878
1413.70843	0.81806
1411.77977	0.81791
1409.85111	0.81791
1407.92245	0.81813
1405.99379	0.81851
1404.06513	0.81854
1402.13647	0.81855
1400.20781	0.81912
1398.27914	0.81976
1396.35048	0.81991
1394.42182	0.81944
1392.49316	0.81862
1390.56450	0.81834
1388.63584	0.81873
1386.70718	0.81894
1384.77852	0.81851
1382.84986	0.81802
1380.92120	0.81777
1378.99254	0.81779
1377.06387	0.81818
1375.13521	0.81864
1373.20655	0.81842
1371.27789	0.81781
1369.34923	0.81750
1367.42057	0.81743
1365.49191	0.81767
1363.56325	0.81817
1361.63459	0.81814
1359.70593	0.81748
1357.77727	0.81694
1355.84860	0.81671
1353.91994	0.81654
1351.99128	0.81643
1350.06262	0.81642
1348.13396	0.81643
1346.20530	0.81643
1344.27664	0.81654
1342.34798	0.81701
1340.41932	0.81765
1338.49066	0.81775
1336.56200	0.81721
1334.63333	0.81671
1332.70467	0.81655
1330.77601	0.81657
1328.84735	0.81659
1326.91869	0.81660
1324.99003	0.81666
1323.06137	0.81677
1321.13271	0.81695
1319.20405	0.81709
1317.27539	0.81704
1315.34673	0.81696
1313.41807	0.81694
1311.48940	0.81687
1309.56074	0.81681
1307.63208	0.81686
1305.70342	0.81691
1303.77476	0.81693
1301.84610	0.81696
1299.91744	0.81699
1297.98878	0.81698
1296.06012	0.81692
1294.13146	0.81686
1292.20280	0.81684
1290.27413	0.81682
1288.34547	0.81677
1286.41681	0.81667
1284.48815	0.81651
1282.55949	0.81637
1280.63083	0.81632
1278.70217	0.81631
1276.77351	0.81627
1274.84485	0.81622
1272.91619	0.81623
1270.98753	0.81623
1269.05886	0.81615
1267.13020	0.81601
1265.20154	0.81586
1263.27288	0.81579
1261.34422	0.81585
1259.41556	0.81595
1257.48690	0.81601
1255.55824	0.81595
1253.62958	0.81583
1251.70092	0.81571
1249.77226	0.81557
1247.84359	0.81540
1245.91493	0.81523
1243.98627	0.81509
1242.05761	0.81497
1240.12895	0.81486
1238.20029	0.81470
1236.27163	0.81453
1234.34297	0.81441
1232.41431	0.81429
1230.48565	0.81409
1228.55699	0.81386
1226.62833	0.81366
1224.69966	0.81346
1222.77100	0.81323
1220.84234	0.81297
1218.91368	0.81272
1216.98502	0.81254
1215.05636	0.81235
1213.12770	0.81213
1211.19904	0.81184
1209.27038	0.81150
1207.34172	0.81120
1205.41306	0.81100
1203.48439	0.81086
1201.55573	0.81072
1199.62707	0.81051
1197.69841	0.81028
1195.76975	0.81012
1193.84109	0.81001
1191.91243	0.80987
1189.98377	0.80970
1188.05511	0.80950
1186.12645	0.80934
1184.19779	0.80926
1182.26912	0.80918
1180.34046	0.80897
1178.41180	0.80859
1176.48314	0.80817
1174.55448	0.80778
1172.62582	0.80744
1170.69716	0.80710
1168.76850	0.80680
1166.83984	0.80658
1164.91118	0.80646
1162.98252	0.80637
1161.05385	0.80626
1159.12519	0.80608
1157.19653	0.80589
1155.26787	0.80575
1153.33921	0.80561
1151.41055	0.80544
1149.48189	0.80525
1147.55323	0.80506
1145.62457	0.80489
1143.69591	0.80468
1141.76725	0.80449
1139.83859	0.80439
1137.90992	0.80432
1135.98126	0.80422
1134.05260	0.80409
1132.12394	0.80391
1130.19528	0.80371
1128.26662	0.80353
1126.33796	0.80333
1124.40930	0.80314
1122.48064	0.80294
1120.55198	0.80275
1118.62332	0.80257
1116.69465	0.80238
1114.76599	0.80214
1112.83733	0.80185
1110.90867	0.80157
1108.98001	0.80135
1107.05135	0.80117
1105.12269	0.80097
1103.19403	0.80072
1101.26537	0.80042
1099.33671	0.80009
1097.40805	0.79983
1095.47938	0.79962
1093.55072	0.79939
1091.62206	0.79917
1089.69340	0.79903
1087.76474	0.79889
1085.83608	0.79869
1083.90742	0.79855
1081.97876	0.79846
1080.05010	0.79839
1078.12144	0.79834
1076.19278	0.79825
1074.26411	0.79813
1072.33545	0.79806
1070.40679	0.79806
1068.47813	0.79807
1066.54947	0.79810
1064.62081	0.79815
1062.69215	0.79822
1060.76349	0.79831
1058.83483	0.79842
1056.90617	0.79851
1054.97751	0.79858
1053.04885	0.79872
1051.12018	0.79892
1049.19152	0.79907
1047.26286	0.79915
1045.33420	0.79924
1043.40554	0.79940
1041.47688	0.79956
1039.54822	0.79960
1037.61956	0.79959
1035.69090	0.79961
1033.76224	0.79959
1031.83358	0.79952
1029.90491	0.79946
1027.97625	0.79941
1026.04759	0.79935
1024.11893	0.79923
1022.19027	0.79900
1020.26161	0.79878
1018.33295	0.79869
1016.40429	0.79869
1014.47563	0.79868
1012.54697	0.79861
1010.61831	0.79845
1008.68964	0.79822
1006.76098	0.79799
1004.83232	0.79778
1002.90366	0.79759
1000.97500	0.79739
999.04634	0.79717
997.11768	0.79692
995.18902	0.79665
993.26036	0.79640
991.33170	0.79617
989.40304	0.79591
987.47438	0.79560
985.54571	0.79528
983.61705	0.79492
981.68839	0.79456
979.75973	0.79425
977.83107	0.79397
975.90241	0.79370
973.97375	0.79340
972.04509	0.79309
970.11643	0.79283
968.18777	0.79267
966.25911	0.79258
964.33044	0.79245
962.40178	0.79225
960.47312	0.79202
958.54446	0.79183
956.61580	0.79164
954.68714	0.79143
952.75848	0.79126
950.82982	0.79108
948.90116	0.79084
946.97250	0.79062
945.04384	0.79047
943.11517	0.79033
941.18651	0.79009
939.25785	0.78983
937.32919	0.78963
935.40053	0.78952
933.47187	0.78946
931.54321	0.78938
929.61455	0.78925
927.68589	0.78912
925.75723	0.78902
923.82857	0.78891
921.89990	0.78878
919.97124	0.78863
918.04258	0.78847
916.11392	0.78833
914.18526	0.78815
912.25660	0.78795
910.32794	0.78781
908.39928	0.78775
906.47062	0.78765
904.54196	0.78742
902.61330	0.78715
900.68464	0.78696
898.75597	0.78679
896.82731	0.78655
894.89865	0.78626
892.96999	0.78605
891.04133	0.78592
889.11267	0.78581
887.18401	0.78570
885.25535	0.78565
883.32669	0.78560
881.39803	0.78550
879.46937	0.78531
877.54070	0.78509
875.61204	0.78487
873.68338	0.78460
871.75472	0.78425
869.82606	0.78387
867.89740	0.78354
865.96874	0.78326
864.04008	0.78297
862.11142	0.78261
860.18276	0.78220
858.25410	0.78179
856.32543	0.78133
854.39677	0.78088
852.46811	0.78050
850.53945	0.78020
848.61079	0.77995
846.68213	0.77965
844.75347	0.77927
842.82481	0.77889
840.89615	0.77859
838.96749	0.77840
837.03883	0.77817
835.11016	0.77779
833.18150	0.77726
831.25284	0.77667
829.32418	0.77600
827.39552	0.77515
825.46686	0.77399
823.53820	0.77261
821.60954	0.77110
819.68088	0.76955
817.75222	0.76815
815.82356	0.76692
813.89490	0.76551
811.96623	0.76388
810.03757	0.76218
808.10891	0.76047
806.18025	0.75877
804.25159	0.75692
802.32293	0.75473
800.39427	0.75218
798.46561	0.74934
796.53695	0.74639
794.60829	0.74346
792.67963	0.74057
790.75096	0.73767
788.82230	0.73482
786.89364	0.73204
784.96498	0.72921
783.03632	0.72623
781.10766	0.72330
779.17900	0.72047
777.25034	0.71755
775.32168	0.71446
773.39302	0.71138
771.46436	0.70835
769.53569	0.70526
767.60703	0.70210
765.67837	0.69884
763.74971	0.69543
761.82105	0.69189
759.89239	0.68834
757.96373	0.68482
756.03507	0.68133
754.10641	0.67792
752.17775	0.67443
750.24909	0.67064
748.32042	0.66670
746.39176	0.66298
744.46310	0.65958
742.53444	0.65628
740.60578	0.65287
738.67712	0.64945
736.74846	0.64612
734.81980	0.64283
732.89114	0.63980
730.96248	0.63721
729.03382	0.63496
727.10516	0.63283
725.17649	0.63062
723.24783	0.62818
721.31917	0.62551
719.39051	0.62288
717.46185	0.62041
715.53319	0.61816
713.60453	0.61632
711.67587	0.61491
709.74721	0.61389
707.81855	0.61326
705.88989	0.61288
703.96122	0.61254
702.03256	0.61224
700.10390	0.61216
698.17524	0.61219
696.24658	0.61219
694.31792	0.61226
692.38926	0.61248
690.46060	0.61272
688.53194	0.61295
686.60328	0.61323
684.67462	0.61361
682.74595	0.61418
680.81729	0.61506
678.88863	0.61612
676.95997	0.61709
675.03131	0.61786
673.10265	0.61855
671.17399	0.61931
669.24533	0.62025
667.31667	0.62138
665.38801	0.62247
663.45935	0.62364
661.53068	0.62495
659.60202	0.62626
657.67336	0.62758
655.74470	0.62888
653.81604	0.63016
651.88738	0.63157
649.95872	0.63315
648.03006	0.63463
646.10140	0.63567
644.17274	0.63632
642.24408	0.63669
640.31542	0.63699
638.38675	0.63727
636.45809	0.63726
634.52943	0.63661
632.60077	0.63564
630.67211	0.63473
628.74345	0.63397
626.81479	0.63319
624.88613	0.63260
622.95747	0.63211
621.02881	0.63110
619.10015	0.62968
617.17148	0.62868
615.24282	0.62837
613.31416	0.62849
611.38550	0.62895
609.45684	0.62960
607.52818	0.63038
605.59952	0.63132
603.67086	0.63235
601.74220	0.63378
599.81354	0.63551
597.88488	0.63725
595.95621	0.63896
594.02755	0.64059
592.09889	0.64168
590.17023	0.64235
588.24157	0.64320
586.31291	0.64419
584.38425	0.64474
582.45559	0.64496
580.52693	0.64517
578.59827	0.64541
576.66961	0.64560
574.74094	0.64563
572.81228	0.64567
570.88362	0.64601
568.95496	0.64645
567.02630	0.64671
565.09764	0.64704
563.16898	0.64756
561.24032	0.64786
559.31166	0.64761
557.38300	0.64722
555.45434	0.64726
553.52568	0.64763
551.59701	0.64804
549.66835	0.64828
547.73969	0.64828
545.81103	0.64830
543.88237	0.64858
541.95371	0.64893
540.02505	0.64892
538.09639	0.64840
536.16773	0.64769
534.23907	0.64745
532.31041	0.64770
530.38174	0.64784
528.45308	0.64743
526.52442	0.64669
524.59576	0.64624
522.66710	0.64613
520.73844	0.64563
518.80978	0.64461
516.88112	0.64394
514.95246	0.64416
513.02380	0.64485
511.09514	0.64513
509.16647	0.64445
507.23781	0.64362
505.30915	0.64325
503.38049	0.64306
501.45183	0.64323
499.52317	0.64375
497.59451	0.64379
495.66585	0.64343
493.73719	0.64306
491.80853	0.64280
489.87987	0.64294
487.95120	0.64315
486.02254	0.64307
484.09388	0.64288
482.16522	0.64249
480.23656	0.64183
478.30790	0.64140
476.37924	0.64151
474.45058	0.64162
472.52192	0.64133
470.59326	0.64124
468.66460	0.64167
466.73594	0.64194
464.80727	0.64167
462.87861	0.64136
460.94995	0.64152
459.02129	0.64197
457.09263	0.64208
455.16397	0.64178
453.23531	0.64141
451.30665	0.64109
449.37799	0.64094
447.44933	0.64102
445.52067	0.64122
443.59200	0.64159
441.66334	0.64182
439.73468	0.64183
437.80602	0.64195
435.87736	0.64184
433.94870	0.64143
432.02004	0.64144
430.09138	0.64137
428.16272	0.64066
426.23406	0.64030
424.30540	0.64103
422.37673	0.64187
420.44807	0.64192
418.51941	0.64195
416.59075	0.64229
414.66209	0.64215
412.73343	0.64168
410.80477	0.64153
408.87611	0.64172
406.94745	0.64204
405.01879	0.64228
403.09013	0.64228
401.16146	0.64232
399.23280	0.64266
