4000.04268	0.82087
3998.11402	0.82086
3996.18536	0.82090
3994.25670	0.82089
3992.32804	0.82076
3990.39938	0.82059
3988.47072	0.82057
3986.54206	0.82076
3984.61340	0.82091
3982.68474	0.82082
3980.75607	0.82065
3978.82741	0.82063
3976.89875	0.82070
3974.97009	0.82070
3973.04143	0.82065
3971.11277	0.82065
3969.18411	0.82064
3967.25545	0.82056
3965.32679	0.82048
3963.39813	0.82045
3961.46947	0.82040
3959.54080	0.82034
3957.61214	0.82030
3955.68348	0.82037
3953.75482	0.82048
3951.82616	0.82058
3949.89750	0.82065
3947.96884	0.82062
3946.04018	0.82056
3944.11152	0.82050
3942.18286	0.82033
3940.25420	0.82012
3938.32553	0.82012
3936.39687	0.82039
3934.46821	0.82071
3932.53955	0.82074
3930.61089	0.82045
3928.68223	0.82024
3926.75357	0.82029
3924.82491	0.82033
3922.89625	0.82023
3920.96759	0.82025
3919.03893	0.82028
3917.11026	0.82005
3915.18160	0.81970
3913.25294	0.81953
3911.32428	0.81949
3909.39562	0.81959
3907.46696	0.81996
3905.53830	0.82040
3903.60964	0.82045
3901.68098	0.82024
3899.75232	0.81999
3897.82366	0.81975
3895.89500	0.81977
3893.96633	0.82007
3892.03767	0.82008
3890.10901	0.81972
3888.18035	0.81974
3886.25169	0.82012
3884.32303	0.82032
3882.39437	0.82026
3880.46571	0.81991
3878.53705	0.81958
3876.60839	0.81978
3874.67973	0.82021
3872.75106	0.82031
3870.82240	0.81997
3868.89374	0.81962
3866.96508	0.81974
3865.03642	0.82003
3863.10776	0.81988
3861.17910	0.81950
3859.25044	0.81942
3857.32178	0.81932
3855.39312	0.81858
3853.46446	0.81807
3851.53579	0.81865
3849.60713	0.81903
3847.67847	0.81925
3845.74981	0.81962
3843.82115	0.81991
3841.89249	0.82008
3839.96383	0.82024
3838.03517	0.82041
3836.10651	0.82036
3834.17785	0.81979
3832.24919	0.81905
3830.32052	0.81877
3828.39186	0.81892
3826.46320	0.81906
3824.53454	0.81926
3822.60588	0.81978
3820.67722	0.82007
3818.74856	0.81967
3816.81990	0.81887
3814.89124	0.81809
3812.96258	0.81773
3811.03392	0.81779
3809.10526	0.81804
3807.17659	0.81825
3805.24793	0.81856
3803.31927	0.81890
3801.39061	0.81880
3799.46195	0.81855
3797.53329	0.81834
3795.60463	0.81784
3793.67597	0.81741
3791.74731	0.81735
3789.81865	0.81739
3787.88999	0.81751
3785.96132	0.81764
3784.03266	0.81765
3782.10400	0.81801
3780.17534	0.81850
3778.24668	0.81807
3776.31802	0.81725
3774.38936	0.81708
3772.46070	0.81743
3770.53204	0.81768
3768.60338	0.81761
3766.67472	0.81742
3764.74605	0.81724
3762.81739	0.81734
3760.88873	0.81776
3758.96007	0.81801
3757.03141	0.81794
3755.10275	0.81780
3753.17409	0.81764
3751.24543	0.81739
3749.31677	0.81731
3747.38811	0.81707
3745.45945	0.81631
3743.53078	0.81655
3741.60212	0.81811
3739.67346	0.81955
3737.74480	0.82024
3735.81614	0.81992
3733.88748	0.81885
3731.95882	0.81781
3730.03016	0.81736
3728.10150	0.81739
3726.17284	0.81756
3724.24418	0.81770
3722.31552	0.81757
3720.38685	0.81715
3718.45819	0.81677
3716.52953	0.81667
3714.60087	0.81682
3712.67221	0.81710
3710.74355	0.81711
3708.81489	0.81668
3706.88623	0.81632
3704.95757	0.81630
3703.02891	0.81632
3701.10025	0.81610
3699.17158	0.81597
3697.24292	0.81617
3695.31426	0.81650
3693.38560	0.81712
3691.45694	0.81832
3689.52828	0.81898
3687.59962	0.81787
3685.67096	0.81650
3683.74230	0.81589
3681.81364	0.81587
3679.88498	0.81613
3677.95631	0.81635
3676.02765	0.81633
3674.09899	0.81608
3672.17033	0.81576
3670.24167	0.81537
3668.31301	0.81493
3666.38435	0.81457
3664.45569	0.81449
3662.52703	0.81495
3660.59837	0.81564
3658.66971	0.81567
3656.74104	0.81479
3654.81238	0.81428
3652.88372	0.81505
3650.95506	0.81604
3649.02640	0.81542
3647.09774	0.81384
3645.16908	0.81271
3643.24042	0.81193
3641.31176	0.81132
3639.38310	0.81089
3637.45444	0.81063
3635.52578	0.81039
3633.59711	0.80999
3631.66845	0.80933
3629.73979	0.80839
3627.81113	0.80774
3625.88247	0.80759
3623.95381	0.80762
3622.02515	0.80763
3620.09649	0.80718
3618.16783	0.80642
3616.23917	0.80596
3614.31051	0.80540
3612.38184	0.80443
3610.45318	0.80366
3608.52452	0.80350
3606.59586	0.80371
3604.66720	0.80390
3602.73854	0.80412
3600.80988	0.80432
3598.88122	0.80409
3596.95256	0.80352
3595.02390	0.80323
3593.09524	0.80326
3591.16657	0.80335
3589.23791	0.80397
3587.30925	0.80528
3585.38059	0.80594
3583.45193	0.80554
3581.52327	0.80478
3579.59461	0.80418
3577.66595	0.80402
3575.73729	0.80423
3573.80863	0.80468
3571.87997	0.80548
3569.95130	0.80639
3568.02264	0.80681
3566.09398	0.80670
3564.16532	0.80676
3562.23666	0.80705
3560.30800	0.80703
3558.37934	0.80672
3556.45068	0.80661
3554.52202	0.80696
3552.59336	0.80740
3550.66470	0.80759
3548.73604	0.80817
3546.80737	0.80938
3544.87871	0.80978
3542.95005	0.80867
3541.02139	0.80729
3539.09273	0.80688
3537.16407	0.80700
3535.23541	0.80640
3533.30675	0.80534
3531.37809	0.80482
3529.44943	0.80479
3527.52077	0.80507
3525.59210	0.80575
3523.66344	0.80589
3521.73478	0.80488
3519.80612	0.80382
3517.87746	0.80354
3515.94880	0.80387
3514.02014	0.80418
3512.09148	0.80387
3510.16282	0.80330
3508.23416	0.80321
3506.30550	0.80400
3504.37683	0.80537
3502.44817	0.80594
3500.51951	0.80557
3498.59085	0.80542
3496.66219	0.80543
3494.73353	0.80512
3492.80487	0.80483
3490.87621	0.80494
3488.94755	0.80544
3487.01889	0.80570
3485.09023	0.80543
3483.16156	0.80561
3481.23290	0.80653
3479.30424	0.80680
3477.37558	0.80608
3475.44692	0.80553
3473.51826	0.80587
3471.58960	0.80735
3469.66094	0.80919
3467.73228	0.80954
3465.80362	0.80818
3463.87496	0.80695
3461.94630	0.80685
3460.01763	0.80689
3458.08897	0.80626
3456.16031	0.80563
3454.23165	0.80547
3452.30299	0.80553
3450.37433	0.80580
3448.44567	0.80621
3446.51701	0.80628
3444.58835	0.80599
3442.65969	0.80588
3440.73103	0.80652
3438.80236	0.80812
3436.87370	0.80964
3434.94504	0.80972
3433.01638	0.80891
3431.08772	0.80847
3429.15906	0.80804
3427.23040	0.80701
3425.30174	0.80605
3423.37308	0.80586
3421.44442	0.80608
3419.51576	0.80598
3417.58709	0.80582
3415.65843	0.80636
3413.72977	0.80720
3411.80111	0.80755
3409.87245	0.80737
3407.94379	0.80675
3406.01513	0.80645
3404.08647	0.80784
3402.15781	0.81007
3400.22915	0.81039
3398.30049	0.80864
3396.37182	0.80749
3394.44316	0.80829
3392.51450	0.80928
3390.58584	0.80840
3388.65718	0.80641
3386.72852	0.80517
3384.79986	0.80490
3382.87120	0.80513
3380.94254	0.80551
3379.01388	0.80569
3377.08522	0.80561
3375.15656	0.80551
3373.22789	0.80626
3371.29923	0.80821
3369.37057	0.80980
3367.44191	0.80934
3365.51325	0.80742
3363.58459	0.80599
3361.65593	0.80569
3359.72727	0.80542
3357.79861	0.80475
3355.86995	0.80449
3353.94129	0.80539
3352.01262	0.80683
3350.08396	0.80688
3348.15530	0.80552
3346.22664	0.80482
3344.29798	0.80524
3342.36932	0.80590
3340.44066	0.80662
3338.51200	0.80677
3336.58334	0.80560
3334.65468	0.80410
3332.72602	0.80333
3330.79735	0.80324
3328.86869	0.80387
3326.94003	0.80486
3325.01137	0.80494
3323.08271	0.80388
3321.15405	0.80288
3319.22539	0.80245
3317.29673	0.80234
3315.36807	0.80240
3313.43941	0.80284
3311.51075	0.80422
3309.58208	0.80644
3307.65342	0.80819
3305.72476	0.80800
3303.79610	0.80573
3301.86744	0.80325
3299.93878	0.80248
3298.01012	0.80339
3296.08146	0.80458
3294.15280	0.80511
3292.22414	0.80452
3290.29548	0.80282
3288.36682	0.80117
3286.43815	0.80047
3284.50949	0.80027
3282.58083	0.80014
3280.65217	0.80010
3278.72351	0.80037
3276.79485	0.80121
3274.86619	0.80241
3272.93753	0.80369
3271.00887	0.80396
3269.08021	0.80232
3267.15155	0.80018
3265.22288	0.79915
3263.29422	0.79898
3261.36556	0.79911
3259.43690	0.79963
3257.50824	0.80048
3255.57958	0.80074
3253.65092	0.80010
3251.72226	0.79982
3249.79360	0.80078
3247.86494	0.80198
3245.93628	0.80187
3244.00761	0.80082
3242.07895	0.80019
3240.15029	0.80015
3238.22163	0.80067
3236.29297	0.80225
3234.36431	0.80391
3232.43565	0.80370
3230.50699	0.80214
3228.57833	0.80111
3226.64967	0.80093
3224.72101	0.80107
3222.79234	0.80141
3220.86368	0.80186
3218.93502	0.80213
3217.00636	0.80219
3215.07770	0.80226
3213.14904	0.80231
3211.22038	0.80235
3209.29172	0.80259
3207.36306	0.80289
3205.43440	0.80300
3203.50574	0.80305
3201.57708	0.80315
3199.64841	0.80334
3197.71975	0.80359
3195.79109	0.80385
3193.86243	0.80413
3191.93377	0.80447
3190.00511	0.80476
3188.07645	0.80489
3186.14779	0.80496
3184.21913	0.80511
3182.29047	0.80535
3180.36181	0.80562
3178.43314	0.80585
3176.50448	0.80604
3174.57582	0.80624
3172.64716	0.80641
3170.71850	0.80662
3168.78984	0.80689
3166.86118	0.80717
3164.93252	0.80744
3163.00386	0.80772
3161.07520	0.80800
3159.14654	0.80831
3157.21787	0.80894
3155.28921	0.81036
3153.36055	0.81180
3151.43189	0.81179
3149.50323	0.81062
3147.57457	0.80982
3145.64591	0.80978
3143.71725	0.81037
3141.78859	0.81170
3139.85993	0.81287
3137.93127	0.81268
3136.00260	0.81174
3134.07394	0.81142
3132.14528	0.81193
3130.21662	0.81250
3128.28796	0.81258
3126.35930	0.81260
3124.43064	0.81348
3122.50198	0.81543
3120.57332	0.81755
3118.64466	0.81872
3116.71600	0.81866
3114.78734	0.81746
3112.85867	0.81621
3110.93001	0.81630
3109.00135	0.81688
3107.07269	0.81651
3105.14403	0.81587
3103.21537	0.81615
3101.28671	0.81697
3099.35805	0.81723
3097.42939	0.81686
3095.50073	0.81669
3093.57207	0.81733
3091.64340	0.81841
3089.71474	0.81907
3087.78608	0.81943
3085.85742	0.82009
3083.92876	0.82075
3082.00010	0.82128
3080.07144	0.82176
3078.14278	0.82139
3076.21412	0.82005
3074.28546	0.81890
3072.35680	0.81872
3070.42813	0.81944
3068.49947	0.82042
3066.57081	0.82062
3064.64215	0.81993
3062.71349	0.81919
3060.78483	0.81893
3058.85617	0.81926
3056.92751	0.81978
3054.99885	0.82009
3053.07019	0.82037
3051.14153	0.82048
3049.21286	0.82028
3047.28420	0.82045
3045.35554	0.82125
3043.42688	0.82186
3041.49822	0.82156
3039.56956	0.82063
3037.64090	0.82028
3035.71224	0.82084
3033.78358	0.82108
3031.85492	0.82048
3029.92626	0.81971
3027.99760	0.81935
3026.06893	0.81948
3024.14027	0.81958
3022.21161	0.81961
3020.28295	0.82002
3018.35429	0.82080
3016.42563	0.82171
3014.49697	0.82245
3012.56831	0.82236
3010.63965	0.82121
3008.71099	0.81974
3006.78233	0.81892
3004.85366	0.81877
3002.92500	0.81881
3000.99634	0.81913
2999.06768	0.81976
2997.13902	0.82012
2995.21036	0.82030
2993.28170	0.82057
2991.35304	0.82024
2989.42438	0.81935
2987.49572	0.81884
2985.56706	0.81902
2983.63839	0.81984
2981.70973	0.82075
2979.78107	0.82095
2977.85241	0.82059
2975.92375	0.82033
2973.99509	0.82000
2972.06643	0.81933
2970.13777	0.81873
2968.20911	0.81841
2966.28045	0.81832
2964.35179	0.81840
2962.42313	0.81839
2960.49446	0.81814
2958.56580	0.81787
2956.63714	0.81800
2954.70848	0.81865
2952.77982	0.81920
2950.85116	0.81929
2948.92250	0.81958
2946.99384	0.82019
2945.06518	0.82026
2943.13652	0.81938
2941.20786	0.81810
2939.27919	0.81721
2937.35053	0.81678
2935.42187	0.81651
2933.49321	0.81654
2931.56455	0.81683
2929.63589	0.81657
2927.70723	0.81539
2925.77857	0.81406
2923.84991	0.81314
2921.92125	0.81271
2919.99259	0.81297
2918.06392	0.81389
2916.13526	0.81524
2914.20660	0.81641
2912.27794	0.81676
2910.34928	0.81645
2908.42062	0.81619
2906.49196	0.81629
2904.56330	0.81656
2902.63464	0.81670
2900.70598	0.81683
2898.77732	0.81728
2896.84865	0.81780
2894.91999	0.81779
2892.99133	0.81743
2891.06267	0.81728
2889.13401	0.81734
2887.20535	0.81741
2885.27669	0.81752
2883.34803	0.81763
2881.41937	0.81772
2879.49071	0.81781
2877.56205	0.81825
2875.63339	0.81921
2873.70472	0.81979
2871.77606	0.81919
2869.84740	0.81825
2867.91874	0.81788
2865.99008	0.81775
2864.06142	0.81761
2862.13276	0.81761
2860.20410	0.81748
2858.27544	0.81687
2856.34678	0.81601
2854.41812	0.81524
2852.48945	0.81469
2850.56079	0.81470
2848.63213	0.81529
2846.70347	0.81590
2844.77481	0.81636
2842.84615	0.81713
2840.91749	0.81839
2838.98883	0.81935
2837.06017	0.81937
2835.13151	0.81891
2833.20285	0.81847
2831.27418	0.81815
2829.34552	0.81802
2827.41686	0.81805
2825.48820	0.81812
2823.55954	0.81816
2821.63088	0.81815
2819.70222	0.81813
2817.77356	0.81811
2815.84490	0.81810
2813.91624	0.81825
2811.98758	0.81858
2810.05891	0.81873
2808.13025	0.81848
2806.20159	0.81816
2804.27293	0.81808
2802.34427	0.81832
2800.41561	0.81886
2798.48695	0.81922
2796.55829	0.81901
2794.62963	0.81869
2792.70097	0.81881
2790.77231	0.81917
2788.84365	0.81916
2786.91498	0.81865
2784.98632	0.81819
2783.05766	0.81804
2781.12900	0.81804
2779.20034	0.81819
2777.27168	0.81860
2775.34302	0.81896
2773.41436	0.81884
2771.48570	0.81851
2769.55704	0.81836
2767.62838	0.81830
2765.69971	0.81819
2763.77105	0.81807
2761.84239	0.81800
2759.91373	0.81798
2757.98507	0.81798
2756.05641	0.81796
2754.12775	0.81797
2752.19909	0.81814
2750.27043	0.81846
2748.34177	0.81859
2746.41311	0.81833
2744.48444	0.81798
2742.55578	0.81782
2740.62712	0.81781
2738.69846	0.81787
2736.76980	0.81787
2734.84114	0.81777
2732.91248	0.81769
2730.98382	0.81773
2729.05516	0.81799
2727.12650	0.81834
2725.19784	0.81841
2723.26917	0.81821
2721.34051	0.81792
2719.41185	0.81765
2717.48319	0.81750
2715.55453	0.81746
2713.62587	0.81746
2711.69721	0.81751
2709.76855	0.81755
2707.83989	0.81752
2705.91123	0.81747
2703.98257	0.81741
2702.05391	0.81738
2700.12524	0.81739
2698.19658	0.81736
2696.26792	0.81729
2694.33926	0.81723
2692.41060	0.81723
2690.48194	0.81724
2688.55328	0.81724
2686.62462	0.81724
2684.69596	0.81733
2682.76730	0.81756
2680.83864	0.81781
2678.90997	0.81786
2676.98131	0.81772
2675.05265	0.81757
2673.12399	0.81743
2671.19533	0.81725
2669.26667	0.81709
2667.33801	0.81702
2665.40935	0.81700
2663.48069	0.81700
2661.55203	0.81701
2659.62337	0.81702
2657.69470	0.81703
2655.76604	0.81701
2653.83738	0.81695
2651.90872	0.81691
2649.98006	0.81691
2648.05140	0.81693
2646.12274	0.81690
2644.19408	0.81688
2642.26542	0.81690
2640.33676	0.81695
2638.40810	0.81696
2636.47943	0.81692
2634.55077	0.81687
2632.62211	0.81685
2630.69345	0.81685
2628.76479	0.81687
2626.83613	0.81684
2624.90747	0.81675
2622.97881	0.81666
2621.05015	0.81661
2619.12149	0.81659
2617.19283	0.81660
2615.26417	0.81663
2613.33550	0.81664
2611.40684	0.81658
2609.47818	0.81651
2607.54952	0.81651
2605.62086	0.81655
2603.69220	0.81656
2601.76354	0.81657
2599.83488	0.81657
2597.90622	0.81656
2595.97756	0.81654
2594.04890	0.81650
2592.12023	0.81650
2590.19157	0.81654
2588.26291	0.81652
2586.33425	0.81644
2584.40559	0.81638
2582.47693	0.81638
2580.54827	0.81641
2578.61961	0.81645
2576.69095	0.81650
2574.76229	0.81649
2572.83363	0.81642
2570.90496	0.81637
2568.97630	0.81637
2567.04764	0.81639
2565.11898	0.81639
2563.19032	0.81641
2561.26166	0.81642
2559.33300	0.81640
2557.40434	0.81638
2555.47568	0.81639
2553.54702	0.81642
2551.61836	0.81645
2549.68969	0.81644
2547.76103	0.81644
2545.83237	0.81648
2543.90371	0.81648
2541.97505	0.81645
2540.04639	0.81644
2538.11773	0.81645
2536.18907	0.81647
2534.26041	0.81652
2532.33175	0.81654
2530.40309	0.81653
2528.47443	0.81655
2526.54576	0.81658
2524.61710	0.81659
2522.68844	0.81658
2520.75978	0.81656
2518.83112	0.81655
2516.90246	0.81653
2514.97380	0.81650
2513.04514	0.81644
2511.11648	0.81639
2509.18782	0.81639
2507.25916	0.81640
2505.33049	0.81640
2503.40183	0.81640
2501.47317	0.81641
2499.54451	0.81640
2497.61585	0.81639
2495.68719	0.81638
2493.75853	0.81637
2491.82987	0.81640
2489.90121	0.81647
2487.97255	0.81650
2486.04389	0.81649
2484.11522	0.81645
2482.18656	0.81641
2480.25790	0.81639
2478.32924	0.81640
2476.40058	0.81644
2474.47192	0.81646
2472.54326	0.81643
2470.61460	0.81642
2468.68594	0.81644
2466.75728	0.81646
2464.82862	0.81646
2462.89995	0.81646
2460.97129	0.81645
2459.04263	0.81646
2457.11397	0.81649
2455.18531	0.81651
2453.25665	0.81646
2451.32799	0.81639
2449.39933	0.81638
2447.47067	0.81644
2445.54201	0.81650
2443.61335	0.81651
2441.68469	0.81649
2439.75602	0.81647
2437.82736	0.81646
2435.89870	0.81651
2433.97004	0.81652
2432.04138	0.81650
2430.11272	0.81649
2428.18406	0.81650
2426.25540	0.81650
2424.32674	0.81649
2422.39808	0.81648
2420.46942	0.81645
2418.54075	0.81645
2416.61209	0.81645
2414.68343	0.81646
2412.75477	0.81649
2410.82611	0.81651
2408.89745	0.81652
2406.96879	0.81651
2405.04013	0.81649
2403.11147	0.81647
2401.18281	0.81648
2399.25415	0.81651
2397.32548	0.81653
2395.39682	0.81655
2393.46816	0.81652
2391.53950	0.81648
2389.61084	0.81648
2387.68218	0.81656
2385.75352	0.81672
2383.82486	0.81699
2381.89620	0.81743
2379.96754	0.81800
2378.03888	0.81854
2376.11021	0.81891
2374.18155	0.81910
2372.25289	0.81924
2370.32423	0.81931
2368.39557	0.81927
2366.46691	0.81924
2364.53825	0.81925
2362.60959	0.81921
2360.68093	0.81920
2358.75227	0.81943
2356.82361	0.81985
2354.89495	0.82033
2352.96628	0.82067
2351.03762	0.82076
2349.10896	0.82076
2347.18030	0.82084
2345.25164	0.82088
2343.32298	0.82072
2341.39432	0.82053
2339.46566	0.82050
2337.53700	0.82056
2335.60834	0.82054
2333.67968	0.82046
2331.75101	0.82037
2329.82235	0.82019
2327.89369	0.81995
2325.96503	0.81969
2324.03637	0.81942
2322.10771	0.81913
2320.17905	0.81883
2318.25039	0.81861
2316.32173	0.81854
2314.39307	0.81854
2312.46441	0.81853
2310.53574	0.81843
2308.60708	0.81821
2306.67842	0.81795
2304.74976	0.81772
2302.82110	0.81757
2300.89244	0.81746
2298.96378	0.81734
2297.03512	0.81720
2295.10646	0.81711
2293.17780	0.81704
2291.24914	0.81695
2289.32047	0.81686
2287.39181	0.81677
2285.46315	0.81666
2283.53449	0.81659
2281.60583	0.81658
2279.67717	0.81662
2277.74851	0.81665
2275.81985	0.81665
2273.89119	0.81668
2271.96253	0.81671
2270.03387	0.81670
2268.10521	0.81667
2266.17654	0.81666
2264.24788	0.81664
2262.31922	0.81662
2260.39056	0.81659
2258.46190	0.81654
2256.53324	0.81649
2254.60458	0.81646
2252.67592	0.81644
2250.74726	0.81640
2248.81860	0.81635
2246.88994	0.81634
2244.96127	0.81635
2243.03261	0.81635
2241.10395	0.81635
2239.17529	0.81634
2237.24663	0.81633
2235.31797	0.81631
2233.38931	0.81629
2231.46065	0.81626
2229.53199	0.81622
2227.60333	0.81617
2225.67467	0.81609
2223.74600	0.81602
2221.81734	0.81596
2219.88868	0.81591
2217.96002	0.81589
2216.03136	0.81587
2214.10270	0.81582
2212.17404	0.81577
2210.24538	0.81574
2208.31672	0.81568
2206.38806	0.81561
2204.45940	0.81556
2202.53073	0.81552
2200.60207	0.81549
2198.67341	0.81551
2196.74475	0.81551
2194.81609	0.81550
2192.88743	0.81549
2190.95877	0.81546
2189.03011	0.81539
2187.10145	0.81534
2185.17279	0.81532
2183.24413	0.81533
2181.31547	0.81533
2179.38680	0.81529
2177.45814	0.81527
2175.52948	0.81530
2173.60082	0.81534
2171.67216	0.81536
2169.74350	0.81538
2167.81484	0.81539
2165.88618	0.81540
2163.95752	0.81542
2162.02886	0.81543
2160.10020	0.81537
2158.17153	0.81530
2156.24287	0.81528
2154.31421	0.81531
2152.38555	0.81534
2150.45689	0.81533
2148.52823	0.81529
2146.59957	0.81531
2144.67091	0.81536
2142.74225	0.81535
2140.81359	0.81530
2138.88493	0.81529
2136.95626	0.81532
2135.02760	0.81534
2133.09894	0.81535
2131.17028	0.81532
2129.24162	0.81529
2127.31296	0.81527
2125.38430	0.81526
2123.45564	0.81523
2121.52698	0.81521
2119.59832	0.81523
2117.66966	0.81529
2115.74099	0.81530
2113.81233	0.81528
2111.88367	0.81525
2109.95501	0.81526
2108.02635	0.81528
2106.09769	0.81529
2104.16903	0.81527
2102.24037	0.81524
2100.31171	0.81519
2098.38305	0.81515
2096.45439	0.81515
2094.52573	0.81517
2092.59706	0.81522
2090.66840	0.81523
2088.73974	0.81519
2086.81108	0.81517
2084.88242	0.81516
2082.95376	0.81514
2081.02510	0.81512
2079.09644	0.81510
2077.16778	0.81509
2075.23912	0.81512
2073.31046	0.81512
2071.38179	0.81510
2069.45313	0.81509
2067.52447	0.81510
2065.59581	0.81510
2063.66715	0.81508
2061.73849	0.81502
2059.80983	0.81496
2057.88117	0.81489
2055.95251	0.81487
2054.02385	0.81488
2052.09519	0.81489
2050.16652	0.81491
2048.23786	0.81496
2046.30920	0.81499
2044.38054	0.81497
2042.45188	0.81492
2040.52322	0.81486
2038.59456	0.81482
2036.66590	0.81476
2034.73724	0.81468
2032.80858	0.81463
2030.87992	0.81461
2028.95125	0.81464
2027.02259	0.81468
2025.09393	0.81465
2023.16527	0.81459
2021.23661	0.81460
2019.30795	0.81469
2017.37929	0.81471
2015.45063	0.81460
2013.52197	0.81452
2011.59331	0.81449
2009.66465	0.81444
2007.73599	0.81436
2005.80732	0.81432
2003.87866	0.81433
2001.95000	0.81434
2000.02134	0.81435
1998.09268	0.81438
1996.16402	0.81446
1994.23536	0.81466
1992.30670	0.81479
1990.37804	0.81467
1988.44938	0.81447
1986.52072	0.81433
1984.59205	0.81423
1982.66339	0.81415
1980.73473	0.81411
1978.80607	0.81411
1976.87741	0.81413
1974.94875	0.81414
1973.02009	0.81411
1971.09143	0.81414
1969.16277	0.81433
1967.23411	0.81446
1965.30545	0.81430
1963.37678	0.81409
1961.44812	0.81402
1959.51946	0.81402
1957.59080	0.81404
1955.66214	0.81404
1953.73348	0.81399
1951.80482	0.81394
1949.87616	0.81394
1947.94750	0.81403
1946.01884	0.81428
1944.09018	0.81464
1942.16151	0.81466
1940.23285	0.81423
1938.30419	0.81388
1936.37553	0.81383
1934.44687	0.81387
1932.51821	0.81382
1930.58955	0.81373
1928.66089	0.81369
1926.73223	0.81381
1924.80357	0.81413
1922.87491	0.81436
1920.94625	0.81439
1919.01758	0.81440
1917.08892	0.81425
1915.16026	0.81389
1913.23160	0.81373
1911.30294	0.81385
1909.37428	0.81396
1907.44562	0.81384
1905.51696	0.81361
1903.58830	0.81344
1901.65964	0.81338
1899.73098	0.81341
1897.80231	0.81356
1895.87365	0.81371
1893.94499	0.81372
1892.01633	0.81384
1890.08767	0.81400
1888.15901	0.81378
1886.23035	0.81345
1884.30169	0.81334
1882.37303	0.81331
1880.44437	0.81325
1878.51571	0.81316
1876.58704	0.81311
1874.65838	0.81318
1872.72972	0.81360
1870.80106	0.81454
1868.87240	0.81523
1866.94374	0.81471
1865.01508	0.81370
1863.08642	0.81317
1861.15776	0.81307
1859.22910	0.81307
1857.30044	0.81299
1855.37177	0.81287
1853.44311	0.81280
1851.51445	0.81286
1849.58579	0.81320
1847.65713	0.81383
1845.72847	0.81455
1843.79981	0.81458
1841.87115	0.81376
1839.94249	0.81318
1838.01383	0.81309
1836.08517	0.81303
1834.15651	0.81309
1832.22784	0.81383
1830.29918	0.81470
1828.37052	0.81468
1826.44186	0.81425
1824.51320	0.81378
1822.58454	0.81313
1820.65588	0.81271
1818.72722	0.81265
1816.79856	0.81267
1814.86990	0.81278
1812.94124	0.81318
1811.01257	0.81352
1809.08391	0.81332
1807.15525	0.81293
1805.22659	0.81290
1803.29793	0.81337
1801.36927	0.81394
1799.44061	0.81401
1797.51195	0.81381
1795.58329	0.81411
1793.65463	0.81490
1791.72597	0.81488
1789.79730	0.81374
1787.86864	0.81295
1785.93998	0.81295
1784.01132	0.81321
1782.08266	0.81350
1780.15400	0.81355
1778.22534	0.81341
1776.29668	0.81381
1774.36802	0.81509
1772.43936	0.81614
1770.51070	0.81559
1768.58203	0.81429
1766.65337	0.81336
1764.72471	0.81323
1762.79605	0.81366
1760.86739	0.81376
1758.93873	0.81354
1757.01007	0.81338
1755.08141	0.81325
1753.15275	0.81372
1751.22409	0.81493
1749.29543	0.81554
1747.36677	0.81498
1745.43810	0.81426
1743.50944	0.81405
1741.58078	0.81420
1739.65212	0.81422
1737.72346	0.81426
1735.79480	0.81519
1733.86614	0.81615
1731.93748	0.81540
1730.00882	0.81407
1728.08016	0.81301
1726.15150	0.81257
1724.22283	0.81272
1722.29417	0.81327
1720.36551	0.81472
1718.43685	0.81695
1716.50819	0.81747
1714.57953	0.81571
1712.65087	0.81404
1710.72221	0.81340
1708.79355	0.81388
1706.86489	0.81499
1704.93623	0.81567
1703.00756	0.81627
1701.07890	0.81761
1699.15024	0.81837
1697.22158	0.81757
1695.29292	0.81565
1693.36426	0.81387
1691.43560	0.81344
1689.50694	0.81392
1687.57828	0.81499
1685.64962	0.81699
1683.72096	0.81766
1681.79229	0.81555
1679.86363	0.81380
1677.93497	0.81351
1676.00631	0.81411
1674.07765	0.81452
1672.14899	0.81497
1670.22033	0.81540
1668.29167	0.81433
1666.36301	0.81302
1664.43435	0.81302
1662.50569	0.81319
1660.57703	0.81242
1658.64836	0.81203
1656.71970	0.81328
1654.79104	0.81624
1652.86238	0.81748
1650.93372	0.81582
1649.00506	0.81576
1647.07640	0.81614
1645.14774	0.81427
1643.21908	0.81225
1641.29042	0.81178
1639.36176	0.81281
1637.43309	0.81488
1635.50443	0.81536
1633.57577	0.81312
1631.64711	0.81161
1629.71845	0.81169
1627.78979	0.81227
1625.86113	0.81276
1623.93247	0.81310
1622.00381	0.81265
1620.07515	0.81232
1618.14649	0.81312
1616.21782	0.81334
1614.28916	0.81207
1612.36050	0.81124
1610.43184	0.81122
1608.50318	0.81110
1606.57452	0.81048
1604.64586	0.80973
1602.71720	0.80896
1600.78854	0.80798
1598.85988	0.80688
1596.93122	0.80580
1595.00255	0.80433
1593.07389	0.80205
1591.14523	0.79908
1589.21657	0.79579
1587.28791	0.79263
1585.35925	0.79010
1583.43059	0.78864
1581.50193	0.78852
1579.57327	0.79005
1577.64461	0.79335
1575.71595	0.79660
1573.78729	0.79822
1571.85862	0.80039
1569.92996	0.80348
1568.00130	0.80518
1566.07264	0.80582
1564.14398	0.80688
1562.21532	0.80912
1560.28666	0.81359
1558.35800	0.81614
1556.42934	0.81327
1554.50068	0.81073
1552.57202	0.80956
1550.64335	0.80909
1548.71469	0.80883
1546.78603	0.80929
1544.85737	0.81109
1542.92871	0.81378
1541.00005	0.81567
1539.07139	0.81360
1537.14273	0.81081
1535.21407	0.81046
1533.28541	0.81094
1531.35675	0.81049
1529.42808	0.81053
1527.49942	0.81176
1525.57076	0.81321
1523.64210	0.81475
1521.71344	0.81600
1519.78478	0.81595
1517.85612	0.81536
1515.92746	0.81431
1513.99880	0.81316
1512.07014	0.81323
1510.14148	0.81512
1508.21281	0.81811
1506.28415	0.81763
1504.35549	0.81367
1502.42683	0.81155
1500.49817	0.81160
1498.56951	0.81245
1496.64085	0.81220
1494.71219	0.81099
1492.78353	0.81091
1490.85487	0.81223
1488.92621	0.81274
1486.99755	0.81132
1485.06888	0.80980
1483.14022	0.80924
1481.21156	0.80925
1479.28290	0.80957
1477.35424	0.81053
1475.42558	0.81203
1473.49692	0.81284
1471.56826	0.81147
1469.63960	0.80946
1467.71094	0.80890
1465.78228	0.80942
1463.85361	0.80941
1461.92495	0.80941
1459.99629	0.81103
1458.06763	0.81339
1456.13897	0.81260
1454.21031	0.81000
1452.28165	0.80864
1450.35299	0.80846
1448.42433	0.80857
1446.49567	0.80809
1444.56701	0.80731
1442.63834	0.80690
1440.70968	0.80706
1438.78102	0.80796
1436.85236	0.80873
1434.92370	0.80815
1432.99504	0.80750
1431.06638	0.80754
1429.13772	0.80740
1427.20906	0.80706
1425.28040	0.80720
1423.35174	0.80758
1421.42307	0.80820
1419.49441	0.80896
1417.56575	0.80842
1415.63709	0.80710
1413.70843	0.80639
1411.77977	0.80622
1409.85111	0.80619
1407.92245	0.80636
1405.99379	0.80668
1404.06513	0.80664
1402.13647	0.80660
1400.20781	0.80715
1398.27914	0.80780
1396.35048	0.80798
1394.42182	0.80747
1392.49316	0.80656
1390.56450	0.80627
1388.63584	0.80679
1386.70718	0.80717
1384.77852	0.80684
1382.84986	0.80627
1380.92120	0.80583
1378.99254	0.80565
1377.06387	0.80594
1375.13521	0.80638
1373.20655	0.80611
1371.27789	0.80540
1369.34923	0.80502
1367.42057	0.80495
1365.49191	0.80519
1363.56325	0.80563
1361.63459	0.80549
1359.70593	0.80476
1357.77727	0.80421
1355.84860	0.80399
1353.91994	0.80385
1351.99128	0.80374
1350.06262	0.80372
1348.13396	0.80368
1346.20530	0.80360
1344.27664	0.80368
1342.34798	0.80409
1340.41932	0.80458
1338.49066	0.80455
1336.56200	0.80406
1334.63333	0.80368
1332.70467	0.80360
1330.77601	0.80363
1328.84735	0.80363
1326.91869	0.80360
1324.99003	0.80361
1323.06137	0.80368
1321.13271	0.80384
1319.20405	0.80396
1317.27539	0.80390
1315.34673	0.80376
1313.41807	0.80369
1311.48940	0.80363
1309.56074	0.80360
1307.63208	0.80364
1305.70342	0.80369
1303.77476	0.80372
1301.84610	0.80374
1299.91744	0.80373
1297.98878	0.80367
1296.06012	0.80356
1294.13146	0.80343
1292.20280	0.80334
1290.27413	0.80332
1288.34547	0.80329
1286.41681	0.80317
1284.48815	0.80298
1282.55949	0.80281
1280.63083	0.80268
1278.70217	0.80257
1276.77351	0.80246
1274.84485	0.80238
1272.91619	0.80234
1270.98753	0.80226
1269.05886	0.80208
1267.13020	0.80188
1265.20154	0.80175
1263.27288	0.80175
1261.34422	0.80180
1259.41556	0.80183
1257.48690	0.80183
1255.55824	0.80180
1253.62958	0.80172
1251.70092	0.80161
1249.77226	0.80149
1247.84359	0.80132
1245.91493	0.80110
1243.98627	0.80086
1242.05761	0.80065
1240.12895	0.80049
1238.20029	0.80032
1236.27163	0.80008
1234.34297	0.79982
1232.41431	0.79959
1230.48565	0.79933
1228.55699	0.79904
1226.62833	0.79877
1224.69966	0.79851
1222.77100	0.79822
1220.84234	0.79792
1218.91368	0.79765
1216.98502	0.79739
1215.05636	0.79708
1213.12770	0.79670
1211.19904	0.79631
1209.27038	0.79591
1207.34172	0.79554
1205.41306	0.79524
1203.48439	0.79497
1201.55573	0.79464
1199.62707	0.79423
1197.69841	0.79378
1195.76975	0.79339
1193.84109	0.79311
1191.91243	0.79291
1189.98377	0.79269
1188.05511	0.79243
1186.12645	0.79220
1184.19779	0.79199
1182.26912	0.79173
1180.34046	0.79135
1178.41180	0.79081
1176.48314	0.79019
1174.55448	0.78960
1172.62582	0.78911
1170.69716	0.78872
1168.76850	0.78840
1166.83984	0.78806
1164.91118	0.78775
1162.98252	0.78752
1161.05385	0.78736
1159.12519	0.78717
1157.19653	0.78697
1155.26787	0.78680
1153.33921	0.78658
1151.41055	0.78628
1149.48189	0.78596
1147.55323	0.78565
1145.62457	0.78532
1143.69591	0.78495
1141.76725	0.78456
1139.83859	0.78420
1137.90992	0.78391
1135.98126	0.78368
1134.05260	0.78342
1132.12394	0.78312
1130.19528	0.78283
1128.26662	0.78253
1126.33796	0.78222
1124.40930	0.78189
1122.48064	0.78151
1120.55198	0.78117
1118.62332	0.78087
1116.69465	0.78054
1114.76599	0.78015
1112.83733	0.77974
1110.90867	0.77934
1108.98001	0.77899
1107.05135	0.77869
1105.12269	0.77837
1103.19403	0.77804
1101.26537	0.77770
1099.33671	0.77738
1097.40805	0.77709
1095.47938	0.77675
1093.55072	0.77640
1091.62206	0.77618
1089.69340	0.77608
1087.76474	0.77593
1085.83608	0.77569
1083.90742	0.77549
1081.97876	0.77534
1080.05010	0.77522
1078.12144	0.77518
1076.19278	0.77515
1074.26411	0.77506
1072.33545	0.77496
1070.40679	0.77491
1068.47813	0.77485
1066.54947	0.77481
1064.62081	0.77489
1062.69215	0.77507
1060.76349	0.77526
1058.83483	0.77547
1056.90617	0.77567
1054.97751	0.77584
1053.04885	0.77601
1051.12018	0.77622
1049.19152	0.77644
1047.26286	0.77665
1045.33420	0.77682
1043.40554	0.77698
1041.47688	0.77712
1039.54822	0.77725
1037.61956	0.77742
1035.69090	0.77765
1033.76224	0.77779
1031.83358	0.77777
1029.90491	0.77772
1027.97625	0.77773
1026.04759	0.77772
1024.11893	0.77763
1022.19027	0.77749
1020.26161	0.77741
1018.33295	0.77740
1016.40429	0.77740
1014.47563	0.77740
1012.54697	0.77741
1010.61831	0.77739
1008.68964	0.77729
1006.76098	0.77712
1004.83232	0.77689
1002.90366	0.77667
1000.97500	0.77647
999.04634	0.77624
997.11768	0.77598
995.18902	0.77571
993.26036	0.77548
991.33170	0.77529
989.40304	0.77500
987.47438	0.77457
985.54571	0.77413
983.61705	0.77371
981.68839	0.77331
979.75973	0.77293
977.83107	0.77259
975.90241	0.77228
973.97375	0.77200
972.04509	0.77171
970.11643	0.77142
968.18777	0.77119
966.25911	0.77100
964.33044	0.77085
962.40178	0.77069
960.47312	0.77046
958.54446	0.77020
956.61580	0.76994
954.68714	0.76969
952.75848	0.76945
950.82982	0.76921
948.90116	0.76897
946.97250	0.76874
945.04384	0.76850
943.11517	0.76826
941.18651	0.76803
939.25785	0.76782
937.32919	0.76760
935.40053	0.76741
933.47187	0.76725
931.54321	0.76703
929.61455	0.76677
927.68589	0.76661
925.75723	0.76653
923.82857	0.76646
921.89990	0.76644
919.97124	0.76638
918.04258	0.76617
916.11392	0.76588
914.18526	0.76564
912.25660	0.76550
910.32794	0.76540
908.39928	0.76523
906.47062	0.76497
904.54196	0.76468
902.61330	0.76448
900.68464	0.76426
898.75597	0.76394
896.82731	0.76362
894.89865	0.76337
892.96999	0.76316
891.04133	0.76293
889.11267	0.76269
887.18401	0.76251
885.25535	0.76235
883.32669	0.76220
881.39803	0.76206
879.46937	0.76189
877.54070	0.76159
875.61204	0.76111
873.68338	0.76058
871.75472	0.76015
869.82606	0.75980
867.89740	0.75943
865.96874	0.75902
864.04008	0.75858
862.11142	0.75808
860.18276	0.75754
858.25410	0.75699
856.32543	0.75638
854.39677	0.75579
852.46811	0.75534
850.53945	0.75498
848.61079	0.75456
846.68213	0.75410
844.75347	0.75376
842.82481	0.75354
840.89615	0.75320
838.96749	0.75263
837.03883	0.75206
835.11016	0.75159
833.18150	0.75107
831.25284	0.75040
829.32418	0.74959
827.39552	0.74862
825.46686	0.74734
823.53820	0.74575
821.60954	0.74410
819.68088	0.74254
817.75222	0.74103
815.82356	0.73949
813.89490	0.73783
811.96623	0.73610
810.03757	0.73440
808.10891	0.73262
806.18025	0.73062
804.25159	0.72838
802.32293	0.72591
800.39427	0.72317
798.46561	0.72019
796.53695	0.71712
794.60829	0.71406
792.67963	0.71106
790.75096	0.70812
788.82230	0.70521
786.89364	0.70228
784.96498	0.69929
783.03632	0.69618
781.10766	0.69298
779.17900	0.68976
777.25034	0.68661
775.32168	0.68359
773.39302	0.68067
771.46436	0.67766
769.53569	0.67450
767.60703	0.67123
765.67837	0.66779
763.74971	0.66415
761.82105	0.66054
759.89239	0.65707
757.96373	0.65352
756.03507	0.64984
754.10641	0.64619
752.17775	0.64261
750.24909	0.63900
748.32042	0.63525
746.39176	0.63138
744.46310	0.62746
742.53444	0.62366
740.60578	0.62017
738.67712	0.61681
736.74846	0.61330
734.81980	0.60976
732.89114	0.60663
730.96248	0.60398
729.03382	0.60143
727.10516	0.59877
725.17649	0.59610
723.24783	0.59345
721.31917	0.59064
719.39051	0.58783
717.46185	0.58523
715.53319	0.58288
713.60453	0.58092
711.67587	0.57949
709.74721	0.57845
707.81855	0.57760
705.88989	0.57685
703.96122	0.57626
702.03256	0.57590
700.10390	0.57570
698.17524	0.57546
696.24658	0.57517
694.31792	0.57503
692.38926	0.57504
690.46060	0.57513
688.53194	0.57526
686.60328	0.57556
684.67462	0.57625
682.74595	0.57708
680.81729	0.57786
678.88863	0.57867
676.95997	0.57946
675.03131	0.58018
673.10265	0.58084
671.17399	0.58184
669.24533	0.58389
667.31667	0.58556
665.38801	0.58556
663.45935	0.58587
661.53068	0.58696
659.60202	0.58831
657.67336	0.58975
655.74470	0.59122
653.81604	0.59271
651.88738	0.59429
649.95872	0.59590
648.03006	0.59741
646.10140	0.59871
644.17274	0.59990
642.24408	0.60092
640.31542	0.60183
638.38675	0.60284
636.45809	0.60351
634.52943	0.60345
632.60077	0.60330
630.67211	0.60347
628.74345	0.60398
626.81479	0.60471
624.88613	0.60541
622.95747	0.60606
621.02881	0.60680
619.10015	0.60768
617.17148	0.60862
615.24282	0.60926
613.31416	0.60980
611.38550	0.61109
609.45684	0.61333
607.52818	0.61591
605.59952	0.61851
603.67086	0.62104
601.74220	0.62324
599.81354	0.62514
597.88488	0.62734
595.95621	0.62923
594.02755	0.63021
592.09889	0.63077
590.17023	0.63140
588.24157	0.63225
586.31291	0.63316
584.38425	0.63364
582.45559	0.63380
580.52693	0.63407
578.59827	0.63437
576.66961	0.63466
574.74094	0.63495
572.81228	0.63490
570.88362	0.63465
568.95496	0.63468
567.02630	0.63494
565.09764	0.63547
563.16898	0.63617
561.24032	0.63650
559.31166	0.63617
557.38300	0.63547
555.45434	0.63502
553.52568	0.63526
551.59701	0.63609
549.66835	0.63687
547.73969	0.63707
545.81103	0.63686
543.88237	0.63669
541.95371	0.63689
540.02505	0.63739
538.09639	0.63758
536.16773	0.63703
534.23907	0.63599
532.31041	0.63490
530.38174	0.63405
528.45308	0.63364
526.52442	0.63368
524.59576	0.63390
522.66710	0.63402
520.73844	0.63400
518.80978	0.63361
516.88112	0.63272
514.95246	0.63188
513.02380	0.63173
511.09514	0.63206
509.16647	0.63208
507.23781	0.63168
505.30915	0.63126
503.38049	0.63095
501.45183	0.63078
499.52317	0.63044
497.59451	0.62959
495.66585	0.62879
493.73719	0.62854
491.80853	0.62885
489.87987	0.62961
487.95120	0.63021
486.02254	0.63012
484.09388	0.62975
482.16522	0.62952
480.23656	0.62927
478.30790	0.62886
476.37924	0.62847
474.45058	0.62850
472.52192	0.62902
470.59326	0.62967
468.66460	0.63026
466.73594	0.63057
464.80727	0.63015
462.87861	0.62928
460.94995	0.62877
459.02129	0.62863
457.09263	0.62843
455.16397	0.62819
453.23531	0.62800
451.30665	0.62797
449.37799	0.62834
447.44933	0.62887
445.52067	0.62917
443.59200	0.62924
441.66334	0.62920
439.73468	0.62910
437.80602	0.62920
435.87736	0.62961
433.94870	0.62995
432.02004	0.62994
430.09138	0.62958
428.16272	0.62912
426.23406	0.62877
424.30540	0.62859
422.37673	0.62875
420.44807	0.62901
418.51941	0.62917
416.59075	0.62951
414.66209	0.62959
412.73343	0.62913
410.80477	0.62877
408.87611	0.62884
406.94745	0.62909
405.01879	0.62907
403.09013	0.62876
401.16146	0.62880
399.23280	0.62907
