4000.04268	0.81728
3998.11402	0.81731
3996.18536	0.81736
3994.25670	0.81737
3992.32804	0.81730
3990.39938	0.81714
3988.47072	0.81701
3986.54206	0.81709
3984.61340	0.81722
3982.68474	0.81712
3980.75607	0.81690
3978.82741	0.81687
3976.89875	0.81699
3974.97009	0.81706
3973.04143	0.81706
3971.11277	0.81708
3969.18411	0.81702
3967.25545	0.81690
3965.32679	0.81683
3963.39813	0.81681
3961.46947	0.81675
3959.54080	0.81667
3957.61214	0.81661
3955.68348	0.81664
3953.75482	0.81683
3951.82616	0.81703
3949.89750	0.81708
3947.96884	0.81697
3946.04018	0.81692
3944.11152	0.81694
3942.18286	0.81673
3940.25420	0.81643
3938.32553	0.81643
3936.39687	0.81674
3934.46821	0.81709
3932.53955	0.81717
3930.61089	0.81691
3928.68223	0.81667
3926.75357	0.81670
3924.82491	0.81673
3922.89625	0.81660
3920.96759	0.81653
3919.03893	0.81651
3917.11026	0.81634
3915.18160	0.81608
3913.25294	0.81592
3911.32428	0.81590
3909.39562	0.81607
3907.46696	0.81646
3905.53830	0.81680
3903.60964	0.81681
3901.68098	0.81661
3899.75232	0.81633
3897.82366	0.81606
3895.89500	0.81609
3893.96633	0.81638
3892.03767	0.81634
3890.10901	0.81599
3888.18035	0.81608
3886.25169	0.81650
3884.32303	0.81672
3882.39437	0.81671
3880.46571	0.81637
3878.53705	0.81599
3876.60839	0.81611
3874.67973	0.81651
3872.75106	0.81667
3870.82240	0.81644
3868.89374	0.81608
3866.96508	0.81612
3865.03642	0.81637
3863.10776	0.81626
3861.17910	0.81593
3859.25044	0.81586
3857.32178	0.81576
3855.39312	0.81500
3853.46446	0.81452
3851.53579	0.81515
3849.60713	0.81560
3847.67847	0.81588
3845.74981	0.81628
3843.82115	0.81652
3841.89249	0.81655
3839.96383	0.81654
3838.03517	0.81658
3836.10651	0.81654
3834.17785	0.81606
3832.24919	0.81543
3830.32052	0.81519
3828.39186	0.81528
3826.46320	0.81537
3824.53454	0.81559
3822.60588	0.81615
3820.67722	0.81648
3818.74856	0.81613
3816.81990	0.81542
3814.89124	0.81466
3812.96258	0.81427
3811.03392	0.81425
3809.10526	0.81443
3807.17659	0.81462
3805.24793	0.81495
3803.31927	0.81524
3801.39061	0.81513
3799.46195	0.81494
3797.53329	0.81480
3795.60463	0.81433
3793.67597	0.81388
3791.74731	0.81376
3789.81865	0.81382
3787.88999	0.81401
3785.96132	0.81419
3784.03266	0.81425
3782.10400	0.81456
3780.17534	0.81493
3778.24668	0.81449
3776.31802	0.81373
3774.38936	0.81352
3772.46070	0.81379
3770.53204	0.81399
3768.60338	0.81394
3766.67472	0.81381
3764.74605	0.81369
3762.81739	0.81385
3760.88873	0.81428
3758.96007	0.81446
3757.03141	0.81433
3755.10275	0.81426
3753.17409	0.81421
3751.24543	0.81400
3749.31677	0.81392
3747.38811	0.81368
3745.45945	0.81294
3743.53078	0.81321
3741.60212	0.81477
3739.67346	0.81610
3737.74480	0.81665
3735.81614	0.81634
3733.88748	0.81540
3731.95882	0.81443
3730.03016	0.81399
3728.10150	0.81406
3726.17284	0.81427
3724.24418	0.81438
3722.31552	0.81420
3720.38685	0.81375
3718.45819	0.81331
3716.52953	0.81314
3714.60087	0.81326
3712.67221	0.81356
3710.74355	0.81367
3708.81489	0.81335
3706.88623	0.81295
3704.95757	0.81280
3703.02891	0.81279
3701.10025	0.81265
3699.17158	0.81263
3697.24292	0.81291
3695.31426	0.81327
3693.38560	0.81384
3691.45694	0.81493
3689.52828	0.81549
3687.59962	0.81445
3685.67096	0.81318
3683.74230	0.81260
3681.81364	0.81254
3679.88498	0.81274
3677.95631	0.81288
3676.02765	0.81284
3674.09899	0.81270
3672.17033	0.81241
3670.24167	0.81190
3668.31301	0.81139
3666.38435	0.81105
3664.45569	0.81099
3662.52703	0.81150
3660.59837	0.81220
3658.66971	0.81213
3656.74104	0.81126
3654.81238	0.81094
3652.88372	0.81179
3650.95506	0.81267
3649.02640	0.81194
3647.09774	0.81034
3645.16908	0.80926
3643.24042	0.80856
3641.31176	0.80800
3639.38310	0.80753
3637.45444	0.80722
3635.52578	0.80702
3633.59711	0.80670
3631.66845	0.80605
3629.73979	0.80503
3627.81113	0.80426
3625.88247	0.80408
3623.95381	0.80414
3622.02515	0.80422
3620.09649	0.80385
3618.16783	0.80309
3616.23917	0.80260
3614.31051	0.80205
3612.38184	0.80116
3610.45318	0.80048
3608.52452	0.80031
3606.59586	0.80043
3604.66720	0.80057
3602.73854	0.80080
3600.80988	0.80103
3598.88122	0.80084
3596.95256	0.80031
3595.02390	0.80003
3593.09524	0.79999
3591.16657	0.80003
3589.23791	0.80063
3587.30925	0.80187
3585.38059	0.80248
3583.45193	0.80211
3581.52327	0.80148
3579.59461	0.80099
3577.66595	0.80080
3575.73729	0.80090
3573.80863	0.80131
3571.87997	0.80214
3569.95130	0.80306
3568.02264	0.80349
3566.09398	0.80344
3564.16532	0.80353
3562.23666	0.80378
3560.30800	0.80380
3558.37934	0.80356
3556.45068	0.80345
3554.52202	0.80373
3552.59336	0.80416
3550.66470	0.80436
3548.73604	0.80490
3546.80737	0.80608
3544.87871	0.80652
3542.95005	0.80545
3541.02139	0.80403
3539.09273	0.80354
3537.16407	0.80367
3535.23541	0.80317
3533.30675	0.80222
3531.37809	0.80175
3529.44943	0.80168
3527.52077	0.80190
3525.59210	0.80252
3523.66344	0.80261
3521.73478	0.80158
3519.80612	0.80058
3517.87746	0.80041
3515.94880	0.80076
3514.02014	0.80096
3512.09148	0.80054
3510.16282	0.79991
3508.23416	0.79981
3506.30550	0.80064
3504.37683	0.80213
3502.44817	0.80283
3500.51951	0.80251
3498.59085	0.80239
3496.66219	0.80242
3494.73353	0.80207
3492.80487	0.80173
3490.87621	0.80183
3488.94755	0.80234
3487.01889	0.80262
3485.09023	0.80241
3483.16156	0.80263
3481.23290	0.80350
3479.30424	0.80373
3477.37558	0.80302
3475.44692	0.80246
3473.51826	0.80281
3471.58960	0.80430
3469.66094	0.80611
3467.73228	0.80643
3465.80362	0.80512
3463.87496	0.80393
3461.94630	0.80379
3460.01763	0.80377
3458.08897	0.80321
3456.16031	0.80269
3454.23165	0.80258
3452.30299	0.80260
3450.37433	0.80278
3448.44567	0.80317
3446.51701	0.80332
3444.58835	0.80311
3442.65969	0.80299
3440.73103	0.80356
3438.80236	0.80507
3436.87370	0.80654
3434.94504	0.80668
3433.01638	0.80596
3431.08772	0.80554
3429.15906	0.80512
3427.23040	0.80413
3425.30174	0.80320
3423.37308	0.80297
3421.44442	0.80310
3419.51576	0.80298
3417.58709	0.80285
3415.65843	0.80338
3413.72977	0.80427
3411.80111	0.80468
3409.87245	0.80450
3407.94379	0.80392
3406.01513	0.80367
3404.08647	0.80493
3402.15781	0.80698
3400.22915	0.80729
3398.30049	0.80565
3396.37182	0.80453
3394.44316	0.80527
3392.51450	0.80629
3390.58584	0.80560
3388.65718	0.80378
3386.72852	0.80254
3384.79986	0.80218
3382.87120	0.80234
3380.94254	0.80275
3379.01388	0.80299
3377.08522	0.80288
3375.15656	0.80279
3373.22789	0.80362
3371.29923	0.80558
3369.37057	0.80705
3367.44191	0.80656
3365.51325	0.80470
3363.58459	0.80326
3361.65593	0.80287
3359.72727	0.80256
3357.79861	0.80192
3355.86995	0.80172
3353.94129	0.80265
3352.01262	0.80407
3350.08396	0.80414
3348.15530	0.80281
3346.22664	0.80218
3344.29798	0.80269
3342.36932	0.80334
3340.44066	0.80397
3338.51200	0.80406
3336.58334	0.80293
3334.65468	0.80147
3332.72602	0.80070
3330.79735	0.80060
3328.86869	0.80125
3326.94003	0.80228
3325.01137	0.80242
3323.08271	0.80143
3321.15405	0.80047
3319.22539	0.80004
3317.29673	0.79991
3315.36807	0.79992
3313.43941	0.80030
3311.51075	0.80158
3309.58208	0.80369
3307.65342	0.80542
3305.72476	0.80531
3303.79610	0.80319
3301.86744	0.80083
3299.93878	0.80009
3298.01012	0.80098
3296.08146	0.80212
3294.15280	0.80260
3292.22414	0.80204
3290.29548	0.80040
3288.36682	0.79873
3286.43815	0.79797
3284.50949	0.79779
3282.58083	0.79772
3280.65217	0.79772
3278.72351	0.79801
3276.79485	0.79881
3274.86619	0.79998
3272.93753	0.80125
3271.00887	0.80157
3269.08021	0.80004
3267.15155	0.79799
3265.22288	0.79694
3263.29422	0.79671
3261.36556	0.79679
3259.43690	0.79726
3257.50824	0.79814
3255.57958	0.79846
3253.65092	0.79785
3251.72226	0.79758
3249.79360	0.79859
3247.86494	0.79978
3245.93628	0.79958
3244.00761	0.79848
3242.07895	0.79790
3240.15029	0.79794
3238.22163	0.79842
3236.29297	0.79984
3234.36431	0.80135
3232.43565	0.80116
3230.50699	0.79968
3228.57833	0.79872
3226.64967	0.79855
3224.72101	0.79867
3222.79234	0.79899
3220.86368	0.79948
3218.93502	0.79979
3217.00636	0.79980
3215.07770	0.79979
3213.14904	0.79980
3211.22038	0.79989
3209.29172	0.80018
3207.36306	0.80047
3205.43440	0.80054
3203.50574	0.80059
3201.57708	0.80076
3199.64841	0.80097
3197.71975	0.80116
3195.79109	0.80138
3193.86243	0.80164
3191.93377	0.80198
3190.00511	0.80227
3188.07645	0.80235
3186.14779	0.80237
3184.21913	0.80258
3182.29047	0.80293
3180.36181	0.80325
3178.43314	0.80345
3176.50448	0.80352
3174.57582	0.80358
3172.64716	0.80371
3170.71850	0.80392
3168.78984	0.80416
3166.86118	0.80441
3164.93252	0.80468
3163.00386	0.80499
3161.07520	0.80530
3159.14654	0.80562
3157.21787	0.80628
3155.28921	0.80768
3153.36055	0.80909
3151.43189	0.80905
3149.50323	0.80789
3147.57457	0.80712
3145.64591	0.80706
3143.71725	0.80755
3141.78859	0.80877
3139.85993	0.80992
3137.93127	0.80977
3136.00260	0.80883
3134.07394	0.80853
3132.14528	0.80909
3130.21662	0.80969
3128.28796	0.80971
3126.35930	0.80961
3124.43064	0.81036
3122.50198	0.81225
3120.57332	0.81437
3118.64466	0.81557
3116.71600	0.81553
3114.78734	0.81436
3112.85867	0.81313
3110.93001	0.81318
3109.00135	0.81370
3107.07269	0.81335
3105.14403	0.81277
3103.21537	0.81306
3101.28671	0.81383
3099.35805	0.81402
3097.42939	0.81360
3095.50073	0.81343
3093.57207	0.81403
3091.64340	0.81504
3089.71474	0.81570
3087.78608	0.81613
3085.85742	0.81684
3083.92876	0.81753
3082.00010	0.81808
3080.07144	0.81852
3078.14278	0.81813
3076.21412	0.81684
3074.28546	0.81573
3072.35680	0.81557
3070.42813	0.81630
3068.49947	0.81726
3066.57081	0.81743
3064.64215	0.81669
3062.71349	0.81593
3060.78483	0.81569
3058.85617	0.81603
3056.92751	0.81652
3054.99885	0.81678
3053.07019	0.81704
3051.14153	0.81716
3049.21286	0.81699
3047.28420	0.81720
3045.35554	0.81801
3043.42688	0.81862
3041.49822	0.81832
3039.56956	0.81738
3037.64090	0.81703
3035.71224	0.81757
3033.78358	0.81779
3031.85492	0.81720
3029.92626	0.81643
3027.99760	0.81608
3026.06893	0.81623
3024.14027	0.81636
3022.21161	0.81641
3020.28295	0.81681
3018.35429	0.81753
3016.42563	0.81835
3014.49697	0.81903
3012.56831	0.81893
3010.63965	0.81779
3008.71099	0.81636
3006.78233	0.81557
3004.85366	0.81544
3002.92500	0.81550
3000.99634	0.81583
2999.06768	0.81646
2997.13902	0.81681
2995.21036	0.81698
2993.28170	0.81722
2991.35304	0.81688
2989.42438	0.81605
2987.49572	0.81557
2985.56706	0.81576
2983.63839	0.81654
2981.70973	0.81742
2979.78107	0.81760
2977.85241	0.81722
2975.92375	0.81698
2973.99509	0.81669
2972.06643	0.81604
2970.13777	0.81543
2968.20911	0.81515
2966.28045	0.81514
2964.35179	0.81528
2962.42313	0.81526
2960.49446	0.81493
2958.56580	0.81462
2956.63714	0.81475
2954.70848	0.81538
2952.77982	0.81589
2950.85116	0.81595
2948.92250	0.81627
2946.99384	0.81691
2945.06518	0.81699
2943.13652	0.81611
2941.20786	0.81486
2939.27919	0.81402
2937.35053	0.81363
2935.42187	0.81336
2933.49321	0.81335
2931.56455	0.81357
2929.63589	0.81325
2927.70723	0.81207
2925.77857	0.81077
2923.84991	0.80990
2921.92125	0.80949
2919.99259	0.80972
2918.06392	0.81058
2916.13526	0.81185
2914.20660	0.81303
2912.27794	0.81345
2910.34928	0.81320
2908.42062	0.81296
2906.49196	0.81307
2904.56330	0.81334
2902.63464	0.81348
2900.70598	0.81362
2898.77732	0.81413
2896.84865	0.81471
2894.91999	0.81473
2892.99133	0.81432
2891.06267	0.81410
2889.13401	0.81410
2887.20535	0.81416
2885.27669	0.81426
2883.34803	0.81437
2881.41937	0.81446
2879.49071	0.81457
2877.56205	0.81498
2875.63339	0.81590
2873.70472	0.81647
2871.77606	0.81591
2869.84740	0.81497
2867.91874	0.81456
2865.99008	0.81443
2864.06142	0.81432
2862.13276	0.81437
2860.20410	0.81427
2858.27544	0.81364
2856.34678	0.81277
2854.41812	0.81200
2852.48945	0.81140
2850.56079	0.81137
2848.63213	0.81196
2846.70347	0.81262
2844.77481	0.81314
2842.84615	0.81397
2840.91749	0.81524
2838.98883	0.81619
2837.06017	0.81620
2835.13151	0.81574
2833.20285	0.81536
2831.27418	0.81507
2829.34552	0.81488
2827.41686	0.81484
2825.48820	0.81492
2823.55954	0.81498
2821.63088	0.81498
2819.70222	0.81496
2817.77356	0.81493
2815.84490	0.81491
2813.91624	0.81502
2811.98758	0.81534
2810.05891	0.81552
2808.13025	0.81529
2806.20159	0.81499
2804.27293	0.81494
2802.34427	0.81517
2800.41561	0.81567
2798.48695	0.81600
2796.55829	0.81581
2794.62963	0.81553
2792.70097	0.81564
2790.77231	0.81597
2788.84365	0.81593
2786.91498	0.81545
2784.98632	0.81502
2783.05766	0.81489
2781.12900	0.81489
2779.20034	0.81505
2777.27168	0.81547
2775.34302	0.81583
2773.41436	0.81570
2771.48570	0.81537
2769.55704	0.81523
2767.62838	0.81517
2765.69971	0.81507
2763.77105	0.81498
2761.84239	0.81494
2759.91373	0.81494
2757.98507	0.81494
2756.05641	0.81488
2754.12775	0.81486
2752.19909	0.81503
2750.27043	0.81534
2748.34177	0.81545
2746.41311	0.81519
2744.48444	0.81484
2742.55578	0.81470
2740.62712	0.81474
2738.69846	0.81480
2736.76980	0.81475
2734.84114	0.81461
2732.91248	0.81453
2730.98382	0.81456
2729.05516	0.81483
2727.12650	0.81518
2725.19784	0.81527
2723.26917	0.81508
2721.34051	0.81480
2719.41185	0.81452
2717.48319	0.81435
2715.55453	0.81428
2713.62587	0.81430
2711.69721	0.81440
2709.76855	0.81446
2707.83989	0.81443
2705.91123	0.81435
2703.98257	0.81427
2702.05391	0.81426
2700.12524	0.81432
2698.19658	0.81431
2696.26792	0.81421
2694.33926	0.81412
2692.41060	0.81409
2690.48194	0.81406
2688.55328	0.81403
2686.62462	0.81403
2684.69596	0.81412
2682.76730	0.81435
2680.83864	0.81460
2678.90997	0.81465
2676.98131	0.81451
2675.05265	0.81438
2673.12399	0.81428
2671.19533	0.81414
2669.26667	0.81402
2667.33801	0.81394
2665.40935	0.81386
2663.48069	0.81383
2661.55203	0.81386
2659.62337	0.81388
2657.69470	0.81388
2655.76604	0.81389
2653.83738	0.81389
2651.90872	0.81384
2649.98006	0.81375
2648.05140	0.81371
2646.12274	0.81371
2644.19408	0.81374
2642.26542	0.81378
2640.33676	0.81384
2638.40810	0.81388
2636.47943	0.81387
2634.55077	0.81382
2632.62211	0.81377
2630.69345	0.81374
2628.76479	0.81376
2626.83613	0.81376
2624.90747	0.81370
2622.97881	0.81361
2621.05015	0.81358
2619.12149	0.81362
2617.19283	0.81365
2615.26417	0.81364
2613.33550	0.81356
2611.40684	0.81346
2609.47818	0.81339
2607.54952	0.81339
2605.62086	0.81344
2603.69220	0.81347
2601.76354	0.81346
2599.83488	0.81342
2597.90622	0.81339
2595.97756	0.81340
2594.04890	0.81343
2592.12023	0.81346
2590.19157	0.81349
2588.26291	0.81345
2586.33425	0.81338
2584.40559	0.81335
2582.47693	0.81338
2580.54827	0.81341
2578.61961	0.81344
2576.69095	0.81345
2574.76229	0.81344
2572.83363	0.81339
2570.90496	0.81333
2568.97630	0.81330
2567.04764	0.81330
2565.11898	0.81332
2563.19032	0.81336
2561.26166	0.81339
2559.33300	0.81336
2557.40434	0.81331
2555.47568	0.81327
2553.54702	0.81327
2551.61836	0.81329
2549.68969	0.81332
2547.76103	0.81336
2545.83237	0.81338
2543.90371	0.81341
2541.97505	0.81343
2540.04639	0.81347
2538.11773	0.81350
2536.18907	0.81350
2534.26041	0.81349
2532.33175	0.81348
2530.40309	0.81350
2528.47443	0.81356
2526.54576	0.81358
2524.61710	0.81357
2522.68844	0.81357
2520.75978	0.81356
2518.83112	0.81353
2516.90246	0.81352
2514.97380	0.81353
2513.04514	0.81351
2511.11648	0.81346
2509.18782	0.81343
2507.25916	0.81341
2505.33049	0.81337
2503.40183	0.81334
2501.47317	0.81336
2499.54451	0.81340
2497.61585	0.81342
2495.68719	0.81339
2493.75853	0.81333
2491.82987	0.81333
2489.90121	0.81339
2487.97255	0.81345
2486.04389	0.81344
2484.11522	0.81342
2482.18656	0.81341
2480.25790	0.81339
2478.32924	0.81338
2476.40058	0.81338
2474.47192	0.81337
2472.54326	0.81337
2470.61460	0.81341
2468.68594	0.81346
2466.75728	0.81347
2464.82862	0.81343
2462.89995	0.81338
2460.97129	0.81338
2459.04263	0.81341
2457.11397	0.81342
2455.18531	0.81340
2453.25665	0.81337
2451.32799	0.81339
2449.39933	0.81345
2447.47067	0.81348
2445.54201	0.81345
2443.61335	0.81340
2441.68469	0.81340
2439.75602	0.81341
2437.82736	0.81343
2435.89870	0.81346
2433.97004	0.81346
2432.04138	0.81344
2430.11272	0.81345
2428.18406	0.81350
2426.25540	0.81354
2424.32674	0.81352
2422.39808	0.81346
2420.46942	0.81340
2418.54075	0.81339
2416.61209	0.81340
2414.68343	0.81340
2412.75477	0.81337
2410.82611	0.81337
2408.89745	0.81338
2406.96879	0.81340
2405.04013	0.81343
2403.11147	0.81349
2401.18281	0.81353
2399.25415	0.81352
2397.32548	0.81346
2395.39682	0.81342
2393.46816	0.81344
2391.53950	0.81346
2389.61084	0.81348
2387.68218	0.81352
2385.75352	0.81365
2383.82486	0.81394
2381.89620	0.81441
2379.96754	0.81495
2378.03888	0.81541
2376.11021	0.81574
2374.18155	0.81597
2372.25289	0.81613
2370.32423	0.81615
2368.39557	0.81603
2366.46691	0.81599
2364.53825	0.81604
2362.60959	0.81599
2360.68093	0.81595
2358.75227	0.81616
2356.82361	0.81657
2354.89495	0.81705
2352.96628	0.81748
2351.03762	0.81769
2349.10896	0.81777
2347.18030	0.81790
2345.25164	0.81797
2343.32298	0.81778
2341.39432	0.81747
2339.46566	0.81735
2337.53700	0.81743
2335.60834	0.81751
2333.67968	0.81745
2331.75101	0.81727
2329.82235	0.81711
2327.89369	0.81699
2325.96503	0.81680
2324.03637	0.81657
2322.10771	0.81635
2320.17905	0.81609
2318.25039	0.81583
2316.32173	0.81567
2314.39307	0.81565
2312.46441	0.81562
2310.53574	0.81545
2308.60708	0.81521
2306.67842	0.81499
2304.74976	0.81483
2302.82110	0.81468
2300.89244	0.81454
2298.96378	0.81440
2297.03512	0.81430
2295.10646	0.81422
2293.17780	0.81411
2291.24914	0.81398
2289.32047	0.81387
2287.39181	0.81376
2285.46315	0.81365
2283.53449	0.81356
2281.60583	0.81356
2279.67717	0.81361
2277.74851	0.81364
2275.81985	0.81368
2273.89119	0.81374
2271.96253	0.81378
2270.03387	0.81376
2268.10521	0.81371
2266.17654	0.81366
2264.24788	0.81361
2262.31922	0.81362
2260.39056	0.81366
2258.46190	0.81364
2256.53324	0.81358
2254.60458	0.81353
2252.67592	0.81350
2250.74726	0.81348
2248.81860	0.81347
2246.88994	0.81348
2244.96127	0.81346
2243.03261	0.81345
2241.10395	0.81342
2239.17529	0.81338
2237.24663	0.81335
2235.31797	0.81334
2233.38931	0.81332
2231.46065	0.81327
2229.53199	0.81324
2227.60333	0.81319
2225.67467	0.81313
2223.74600	0.81308
2221.81734	0.81305
2219.88868	0.81304
2217.96002	0.81299
2216.03136	0.81290
2214.10270	0.81281
2212.17404	0.81278
2210.24538	0.81274
2208.31672	0.81268
2206.38806	0.81262
2204.45940	0.81262
2202.53073	0.81263
2200.60207	0.81262
2198.67341	0.81260
2196.74475	0.81260
2194.81609	0.81261
2192.88743	0.81258
2190.95877	0.81252
2189.03011	0.81246
2187.10145	0.81242
2185.17279	0.81236
2183.24413	0.81232
2181.31547	0.81235
2179.38680	0.81237
2177.45814	0.81235
2175.52948	0.81235
2173.60082	0.81236
2171.67216	0.81235
2169.74350	0.81236
2167.81484	0.81241
2165.88618	0.81243
2163.95752	0.81244
2162.02886	0.81243
2160.10020	0.81240
2158.17153	0.81241
2156.24287	0.81243
2154.31421	0.81243
2152.38555	0.81244
2150.45689	0.81247
2148.52823	0.81247
2146.59957	0.81245
2144.67091	0.81246
2142.74225	0.81246
2140.81359	0.81247
2138.88493	0.81250
2136.95626	0.81249
2135.02760	0.81245
2133.09894	0.81243
2131.17028	0.81242
2129.24162	0.81241
2127.31296	0.81238
2125.38430	0.81235
2123.45564	0.81234
2121.52698	0.81232
2119.59832	0.81232
2117.66966	0.81234
2115.74099	0.81236
2113.81233	0.81237
2111.88367	0.81239
2109.95501	0.81241
2108.02635	0.81242
2106.09769	0.81241
2104.16903	0.81240
2102.24037	0.81239
2100.31171	0.81237
2098.38305	0.81234
2096.45439	0.81231
2094.52573	0.81232
2092.59706	0.81232
2090.66840	0.81231
2088.73974	0.81231
2086.81108	0.81233
2084.88242	0.81233
2082.95376	0.81227
2081.02510	0.81222
2079.09644	0.81221
2077.16778	0.81222
2075.23912	0.81222
2073.31046	0.81221
2071.38179	0.81220
2069.45313	0.81222
2067.52447	0.81225
2065.59581	0.81224
2063.66715	0.81220
2061.73849	0.81214
2059.80983	0.81209
2057.88117	0.81207
2055.95251	0.81208
2054.02385	0.81208
2052.09519	0.81207
2050.16652	0.81204
2048.23786	0.81202
2046.30920	0.81202
2044.38054	0.81203
2042.45188	0.81204
2040.52322	0.81204
2038.59456	0.81200
2036.66590	0.81193
2034.73724	0.81186
2032.80858	0.81182
2030.87992	0.81180
2028.95125	0.81181
2027.02259	0.81182
2025.09393	0.81179
2023.16527	0.81175
2021.23661	0.81177
2019.30795	0.81187
2017.37929	0.81192
2015.45063	0.81185
2013.52197	0.81175
2011.59331	0.81170
2009.66465	0.81166
2007.73599	0.81161
2005.80732	0.81157
2003.87866	0.81155
2001.95000	0.81151
2000.02134	0.81149
1998.09268	0.81149
1996.16402	0.81156
1994.23536	0.81179
1992.30670	0.81198
1990.37804	0.81190
1988.44938	0.81168
1986.52072	0.81151
1984.59205	0.81136
1982.66339	0.81126
1980.73473	0.81125
1978.80607	0.81128
1976.87741	0.81129
1974.94875	0.81126
1973.02009	0.81123
1971.09143	0.81129
1969.16277	0.81150
1967.23411	0.81162
1965.30545	0.81146
1963.37678	0.81126
1961.44812	0.81122
1959.51946	0.81121
1957.59080	0.81117
1955.66214	0.81111
1953.73348	0.81106
1951.80482	0.81102
1949.87616	0.81102
1947.94750	0.81109
1946.01884	0.81135
1944.09018	0.81173
1942.16151	0.81178
1940.23285	0.81138
1938.30419	0.81105
1936.37553	0.81098
1934.44687	0.81098
1932.51821	0.81090
1930.58955	0.81081
1928.66089	0.81081
1926.73223	0.81096
1924.80357	0.81131
1922.87491	0.81157
1920.94625	0.81164
1919.01758	0.81168
1917.08892	0.81146
1915.16026	0.81104
1913.23160	0.81091
1911.30294	0.81109
1909.37428	0.81118
1907.44562	0.81102
1905.51696	0.81081
1903.58830	0.81070
1901.65964	0.81062
1899.73098	0.81060
1897.80231	0.81073
1895.87365	0.81089
1893.94499	0.81093
1892.01633	0.81108
1890.08767	0.81128
1888.15901	0.81106
1886.23035	0.81066
1884.30169	0.81048
1882.37303	0.81043
1880.44437	0.81040
1878.51571	0.81036
1876.58704	0.81033
1874.65838	0.81035
1872.72972	0.81068
1870.80106	0.81157
1868.87240	0.81225
1866.94374	0.81176
1865.01508	0.81082
1863.08642	0.81035
1861.15776	0.81025
1859.22910	0.81022
1857.30044	0.81014
1855.37177	0.81006
1853.44311	0.81001
1851.51445	0.81009
1849.58579	0.81042
1847.65713	0.81104
1845.72847	0.81170
1843.79981	0.81165
1841.87115	0.81085
1839.94249	0.81032
1838.01383	0.81025
1836.08517	0.81021
1834.15651	0.81031
1832.22784	0.81102
1830.29918	0.81180
1828.37052	0.81174
1826.44186	0.81133
1824.51320	0.81090
1822.58454	0.81031
1820.65588	0.80991
1818.72722	0.80983
1816.79856	0.80985
1814.86990	0.81001
1812.94124	0.81042
1811.01257	0.81070
1809.08391	0.81047
1807.15525	0.81009
1805.22659	0.81006
1803.29793	0.81050
1801.36927	0.81104
1799.44061	0.81113
1797.51195	0.81098
1795.58329	0.81128
1793.65463	0.81202
1791.72597	0.81196
1789.79730	0.81089
1787.86864	0.81018
1785.93998	0.81018
1784.01132	0.81043
1782.08266	0.81069
1780.15400	0.81073
1778.22534	0.81058
1776.29668	0.81099
1774.36802	0.81227
1772.43936	0.81331
1770.51070	0.81274
1768.58203	0.81142
1766.65337	0.81052
1764.72471	0.81046
1762.79605	0.81094
1760.86739	0.81105
1758.93873	0.81083
1757.01007	0.81066
1755.08141	0.81048
1753.15275	0.81091
1751.22409	0.81214
1749.29543	0.81282
1747.36677	0.81228
1745.43810	0.81154
1743.50944	0.81128
1741.58078	0.81137
1739.65212	0.81131
1737.72346	0.81128
1735.79480	0.81210
1733.86614	0.81298
1731.93748	0.81233
1730.00882	0.81116
1728.08016	0.81024
1726.15150	0.80985
1724.22283	0.80996
1722.29417	0.81043
1720.36551	0.81177
1718.43685	0.81394
1716.50819	0.81456
1714.57953	0.81293
1712.65087	0.81130
1710.72221	0.81069
1708.79355	0.81121
1706.86489	0.81235
1704.93623	0.81299
1703.00756	0.81348
1701.07890	0.81476
1699.15024	0.81555
1697.22158	0.81475
1695.29292	0.81285
1693.36426	0.81112
1691.43560	0.81073
1689.50694	0.81122
1687.57828	0.81226
1685.64962	0.81417
1683.72096	0.81479
1681.79229	0.81277
1679.86363	0.81114
1677.93497	0.81093
1676.00631	0.81153
1674.07765	0.81185
1672.14899	0.81224
1670.22033	0.81269
1668.29167	0.81167
1666.36301	0.81034
1664.43435	0.81031
1662.50569	0.81049
1660.57703	0.80979
1658.64836	0.80940
1656.71970	0.81055
1654.79104	0.81336
1652.86238	0.81465
1650.93372	0.81312
1649.00506	0.81305
1647.07640	0.81338
1645.14774	0.81152
1643.21908	0.80953
1641.29042	0.80910
1639.36176	0.81018
1637.43309	0.81221
1635.50443	0.81260
1633.57577	0.81037
1631.64711	0.80888
1629.71845	0.80897
1627.78979	0.80957
1625.86113	0.81007
1623.93247	0.81040
1622.00381	0.80995
1620.07515	0.80964
1618.14649	0.81046
1616.21782	0.81072
1614.28916	0.80949
1612.36050	0.80866
1610.43184	0.80862
1608.50318	0.80849
1606.57452	0.80789
1604.64586	0.80718
1602.71720	0.80645
1600.78854	0.80550
1598.85988	0.80443
1596.93122	0.80335
1595.00255	0.80187
1593.07389	0.79965
1591.14523	0.79674
1589.21657	0.79343
1587.28791	0.79016
1585.35925	0.78754
1583.43059	0.78601
1581.50193	0.78587
1579.57327	0.78739
1577.64461	0.79063
1575.71595	0.79385
1573.78729	0.79553
1571.85862	0.79771
1569.92996	0.80080
1568.00130	0.80259
1566.07264	0.80334
1564.14398	0.80444
1562.21532	0.80660
1560.28666	0.81090
1558.35800	0.81334
1556.42934	0.81059
1554.50068	0.80814
1552.57202	0.80702
1550.64335	0.80657
1548.71469	0.80626
1546.78603	0.80659
1544.85737	0.80828
1542.92871	0.81097
1541.00005	0.81289
1539.07139	0.81093
1537.14273	0.80826
1535.21407	0.80788
1533.28541	0.80824
1531.35675	0.80775
1529.42808	0.80780
1527.49942	0.80900
1525.57076	0.81041
1523.64210	0.81197
1521.71344	0.81320
1519.78478	0.81309
1517.85612	0.81252
1515.92746	0.81155
1513.99880	0.81046
1512.07014	0.81060
1510.14148	0.81255
1508.21281	0.81546
1506.28415	0.81483
1504.35549	0.81093
1502.42683	0.80890
1500.49817	0.80898
1498.56951	0.80983
1496.64085	0.80959
1494.71219	0.80841
1492.78353	0.80835
1490.85487	0.80964
1488.92621	0.81009
1486.99755	0.80865
1485.06888	0.80716
1483.14022	0.80661
1481.21156	0.80666
1479.28290	0.80699
1477.35424	0.80792
1475.42558	0.80935
1473.49692	0.81015
1471.56826	0.80884
1469.63960	0.80687
1467.71094	0.80635
1465.78228	0.80690
1463.85361	0.80689
1461.92495	0.80682
1459.99629	0.80836
1458.06763	0.81064
1456.13897	0.80983
1454.21031	0.80728
1452.28165	0.80597
1450.35299	0.80587
1448.42433	0.80604
1446.49567	0.80556
1444.56701	0.80478
1442.63834	0.80437
1440.70968	0.80456
1438.78102	0.80549
1436.85236	0.80629
1434.92370	0.80570
1432.99504	0.80499
1431.06638	0.80496
1429.13772	0.80482
1427.20906	0.80452
1425.28040	0.80466
1423.35174	0.80501
1421.42307	0.80561
1419.49441	0.80637
1417.56575	0.80591
1415.63709	0.80468
1413.70843	0.80396
1411.77977	0.80372
1409.85111	0.80365
1407.92245	0.80388
1405.99379	0.80429
1404.06513	0.80429
1402.13647	0.80417
1400.20781	0.80463
1398.27914	0.80527
1396.35048	0.80544
1394.42182	0.80493
1392.49316	0.80408
1390.56450	0.80382
1388.63584	0.80432
1386.70718	0.80470
1384.77852	0.80437
1382.84986	0.80382
1380.92120	0.80341
1378.99254	0.80322
1377.06387	0.80345
1375.13521	0.80381
1373.20655	0.80355
1371.27789	0.80291
1369.34923	0.80256
1367.42057	0.80245
1365.49191	0.80263
1363.56325	0.80302
1361.63459	0.80288
1359.70593	0.80223
1357.77727	0.80171
1355.84860	0.80146
1353.91994	0.80130
1351.99128	0.80119
1350.06262	0.80115
1348.13396	0.80112
1346.20530	0.80108
1344.27664	0.80117
1342.34798	0.80156
1340.41932	0.80204
1338.49066	0.80201
1336.56200	0.80152
1334.63333	0.80112
1332.70467	0.80099
1330.77601	0.80101
1328.84735	0.80108
1326.91869	0.80111
1324.99003	0.80112
1323.06137	0.80115
1321.13271	0.80126
1319.20405	0.80132
1317.27539	0.80124
1315.34673	0.80114
1313.41807	0.80111
1311.48940	0.80108
1309.56074	0.80106
1307.63208	0.80111
1305.70342	0.80114
1303.77476	0.80113
1301.84610	0.80111
1299.91744	0.80109
1297.98878	0.80106
1296.06012	0.80103
1294.13146	0.80094
1292.20280	0.80081
1290.27413	0.80069
1288.34547	0.80058
1286.41681	0.80046
1284.48815	0.80033
1282.55949	0.80021
1280.63083	0.80008
1278.70217	0.79995
1276.77351	0.79985
1274.84485	0.79978
1272.91619	0.79976
1270.98753	0.79971
1269.05886	0.79957
1267.13020	0.79938
1265.20154	0.79923
1263.27288	0.79918
1261.34422	0.79922
1259.41556	0.79926
1257.48690	0.79929
1255.55824	0.79931
1253.62958	0.79926
1251.70092	0.79911
1249.77226	0.79893
1247.84359	0.79874
1245.91493	0.79853
1243.98627	0.79829
1242.05761	0.79805
1240.12895	0.79785
1238.20029	0.79767
1236.27163	0.79747
1234.34297	0.79726
1232.41431	0.79704
1230.48565	0.79678
1228.55699	0.79651
1226.62833	0.79627
1224.69966	0.79602
1222.77100	0.79569
1220.84234	0.79536
1218.91368	0.79505
1216.98502	0.79472
1215.05636	0.79438
1213.12770	0.79402
1211.19904	0.79367
1209.27038	0.79331
1207.34172	0.79296
1205.41306	0.79260
1203.48439	0.79224
1201.55573	0.79188
1199.62707	0.79153
1197.69841	0.79119
1195.76975	0.79092
1193.84109	0.79069
1191.91243	0.79045
1189.98377	0.79021
1188.05511	0.79000
1186.12645	0.78979
1184.19779	0.78954
1182.26912	0.78921
1180.34046	0.78880
1178.41180	0.78831
1176.48314	0.78776
1174.55448	0.78719
1172.62582	0.78666
1170.69716	0.78623
1168.76850	0.78590
1166.83984	0.78562
1164.91118	0.78534
1162.98252	0.78509
1161.05385	0.78490
1159.12519	0.78473
1157.19653	0.78452
1155.26787	0.78427
1153.33921	0.78401
1151.41055	0.78374
1149.48189	0.78346
1147.55323	0.78313
1145.62457	0.78275
1143.69591	0.78232
1141.76725	0.78201
1139.83859	0.78183
1137.90992	0.78157
1135.98126	0.78118
1134.05260	0.78081
1132.12394	0.78049
1130.19528	0.78018
1128.26662	0.77986
1126.33796	0.77957
1124.40930	0.77935
1122.48064	0.77912
1120.55198	0.77877
1118.62332	0.77835
1116.69465	0.77798
1114.76599	0.77766
1112.83733	0.77731
1110.90867	0.77689
1108.98001	0.77646
1107.05135	0.77610
1105.12269	0.77581
1103.19403	0.77559
1101.26537	0.77535
1099.33671	0.77499
1097.40805	0.77459
1095.47938	0.77421
1093.55072	0.77391
1091.62206	0.77374
1089.69340	0.77364
1087.76474	0.77345
1085.83608	0.77323
1083.90742	0.77310
1081.97876	0.77299
1080.05010	0.77282
1078.12144	0.77263
1076.19278	0.77249
1074.26411	0.77241
1072.33545	0.77238
1070.40679	0.77236
1068.47813	0.77237
1066.54947	0.77247
1064.62081	0.77258
1062.69215	0.77267
1060.76349	0.77280
1058.83483	0.77296
1056.90617	0.77311
1054.97751	0.77331
1053.04885	0.77359
1051.12018	0.77385
1049.19152	0.77401
1047.26286	0.77414
1045.33420	0.77431
1043.40554	0.77452
1041.47688	0.77475
1039.54822	0.77493
1037.61956	0.77503
1035.69090	0.77508
1033.76224	0.77510
1031.83358	0.77508
1029.90491	0.77512
1027.97625	0.77518
1026.04759	0.77516
1024.11893	0.77507
1022.19027	0.77499
1020.26161	0.77492
1018.33295	0.77483
1016.40429	0.77476
1014.47563	0.77478
1012.54697	0.77487
1010.61831	0.77488
1008.68964	0.77470
1006.76098	0.77443
1004.83232	0.77423
1002.90366	0.77408
1000.97500	0.77389
999.04634	0.77364
997.11768	0.77337
995.18902	0.77305
993.26036	0.77267
991.33170	0.77237
989.40304	0.77218
987.47438	0.77197
985.54571	0.77165
983.61705	0.77126
981.68839	0.77088
979.75973	0.77050
977.83107	0.77015
975.90241	0.76980
973.97375	0.76948
972.04509	0.76924
970.11643	0.76899
968.18777	0.76873
966.25911	0.76853
964.33044	0.76834
962.40178	0.76807
960.47312	0.76780
958.54446	0.76758
956.61580	0.76739
954.68714	0.76722
952.75848	0.76704
950.82982	0.76677
948.90116	0.76641
946.97250	0.76615
945.04384	0.76604
943.11517	0.76589
941.18651	0.76562
939.25785	0.76532
937.32919	0.76501
935.40053	0.76473
933.47187	0.76456
931.54321	0.76444
929.61455	0.76428
927.68589	0.76409
925.75723	0.76397
923.82857	0.76395
921.89990	0.76394
919.97124	0.76383
918.04258	0.76363
916.11392	0.76342
914.18526	0.76324
912.25660	0.76308
910.32794	0.76288
908.39928	0.76267
906.47062	0.76240
904.54196	0.76212
902.61330	0.76193
900.68464	0.76182
898.75597	0.76163
896.82731	0.76132
894.89865	0.76097
892.96999	0.76066
891.04133	0.76040
889.11267	0.76019
887.18401	0.76003
885.25535	0.75992
883.32669	0.75980
881.39803	0.75962
879.46937	0.75937
877.54070	0.75909
875.61204	0.75875
873.68338	0.75834
871.75472	0.75791
869.82606	0.75753
867.89740	0.75716
865.96874	0.75674
864.04008	0.75628
862.11142	0.75574
860.18276	0.75520
858.25410	0.75472
856.32543	0.75423
854.39677	0.75368
852.46811	0.75311
850.53945	0.75259
848.61079	0.75215
846.68213	0.75176
844.75347	0.75138
842.82481	0.75101
840.89615	0.75066
838.96749	0.75029
837.03883	0.74983
835.11016	0.74925
833.18150	0.74865
831.25284	0.74804
829.32418	0.74731
827.39552	0.74635
825.46686	0.74512
823.53820	0.74362
821.60954	0.74192
819.68088	0.74021
817.75222	0.73869
815.82356	0.73725
813.89490	0.73560
811.96623	0.73380
810.03757	0.73211
808.10891	0.73042
806.18025	0.72854
804.25159	0.72644
802.32293	0.72410
800.39427	0.72141
798.46561	0.71841
796.53695	0.71537
794.60829	0.71246
792.67963	0.70960
790.75096	0.70665
788.82230	0.70367
786.89364	0.70081
784.96498	0.69794
783.03632	0.69487
781.10766	0.69172
779.17900	0.68854
777.25034	0.68534
775.32168	0.68223
773.39302	0.67934
771.46436	0.67650
769.53569	0.67337
767.60703	0.66997
765.67837	0.66656
763.74971	0.66315
761.82105	0.65969
759.89239	0.65621
757.96373	0.65274
756.03507	0.64925
754.10641	0.64576
752.17775	0.64226
750.24909	0.63869
748.32042	0.63498
746.39176	0.63114
744.46310	0.62727
742.53444	0.62365
740.60578	0.62032
738.67712	0.61697
736.74846	0.61354
734.81980	0.61017
732.89114	0.60696
730.96248	0.60409
729.03382	0.60159
727.10516	0.59926
725.17649	0.59695
723.24783	0.59447
721.31917	0.59165
719.39051	0.58873
717.46185	0.58607
715.53319	0.58377
713.60453	0.58201
711.67587	0.58075
709.74721	0.57974
707.81855	0.57883
705.88989	0.57800
703.96122	0.57733
702.03256	0.57694
700.10390	0.57678
698.17524	0.57676
696.24658	0.57679
694.31792	0.57683
692.38926	0.57688
690.46060	0.57698
688.53194	0.57707
686.60328	0.57713
684.67462	0.57747
682.74595	0.57829
680.81729	0.57927
678.88863	0.58012
676.95997	0.58079
675.03131	0.58145
673.10265	0.58230
671.17399	0.58359
669.24533	0.58570
667.31667	0.58724
665.38801	0.58724
663.45935	0.58754
661.53068	0.58854
659.60202	0.58968
657.67336	0.59092
655.74470	0.59254
653.81604	0.59435
651.88738	0.59594
649.95872	0.59749
648.03006	0.59917
646.10140	0.60063
644.17274	0.60171
642.24408	0.60257
640.31542	0.60327
638.38675	0.60380
636.45809	0.60397
634.52943	0.60370
632.60077	0.60349
630.67211	0.60350
628.74345	0.60355
626.81479	0.60375
624.88613	0.60453
622.95747	0.60581
621.02881	0.60675
619.10015	0.60703
617.17148	0.60738
615.24282	0.60804
613.31416	0.60865
611.38550	0.60967
609.45684	0.61165
607.52818	0.61394
605.59952	0.61592
603.67086	0.61799
601.74220	0.62039
599.81354	0.62260
597.88488	0.62454
595.95621	0.62607
594.02755	0.62741
592.09889	0.62883
590.17023	0.62984
588.24157	0.63031
586.31291	0.63089
584.38425	0.63164
582.45559	0.63233
580.52693	0.63272
578.59827	0.63281
576.66961	0.63305
574.74094	0.63327
572.81228	0.63288
570.88362	0.63227
568.95496	0.63228
567.02630	0.63294
565.09764	0.63364
563.16898	0.63386
561.24032	0.63361
559.31166	0.63307
557.38300	0.63270
555.45434	0.63292
553.52568	0.63351
551.59701	0.63405
549.66835	0.63439
547.73969	0.63460
545.81103	0.63474
543.88237	0.63453
541.95371	0.63417
540.02505	0.63420
538.09639	0.63406
536.16773	0.63321
534.23907	0.63253
532.31041	0.63240
530.38174	0.63213
528.45308	0.63164
526.52442	0.63133
524.59576	0.63110
522.66710	0.63068
520.73844	0.63014
518.80978	0.62962
516.88112	0.62943
514.95246	0.62962
513.02380	0.62990
511.09514	0.62987
509.16647	0.62920
507.23781	0.62841
505.30915	0.62814
503.38049	0.62806
501.45183	0.62805
499.52317	0.62841
497.59451	0.62879
495.66585	0.62861
493.73719	0.62793
491.80853	0.62723
489.87987	0.62699
487.95120	0.62726
486.02254	0.62753
484.09388	0.62728
482.16522	0.62670
480.23656	0.62651
478.30790	0.62692
476.37924	0.62746
474.45058	0.62745
472.52192	0.62694
470.59326	0.62679
468.66460	0.62728
466.73594	0.62759
464.80727	0.62744
462.87861	0.62733
460.94995	0.62743
459.02129	0.62744
457.09263	0.62703
455.16397	0.62646
453.23531	0.62640
451.30665	0.62689
449.37799	0.62750
447.44933	0.62769
445.52067	0.62737
443.59200	0.62709
441.66334	0.62692
439.73468	0.62659
437.80602	0.62639
435.87736	0.62659
433.94870	0.62706
432.02004	0.62751
430.09138	0.62740
428.16272	0.62662
426.23406	0.62608
424.30540	0.62625
422.37673	0.62639
420.44807	0.62609
418.51941	0.62593
416.59075	0.62613
414.66209	0.62621
412.73343	0.62619
410.80477	0.62659
408.87611	0.62706
406.94745	0.62711
405.01879	0.62723
403.09013	0.62751
401.16146	0.62751
399.23280	0.62715
