3996.23848	0.33970
3994.30979	0.34669
3992.38110	0.35048
3990.45242	0.34929
3988.52373	0.34739
3986.59504	0.34752
3984.66636	0.34927
3982.73767	0.34996
3980.80898	0.34859
3978.88030	0.34711
3976.95161	0.34791
3975.02292	0.35255
3973.09424	0.35870
3971.16555	0.36104
3969.23687	0.35935
3967.30818	0.35695
3965.37949	0.35442
3963.45081	0.35285
3961.52212	0.35382
3959.59343	0.35407
3957.66475	0.35120
3955.73606	0.34949
3953.80737	0.35168
3951.87869	0.35504
3949.95000	0.35615
3948.02131	0.35225
3946.09263	0.34538
3944.16394	0.34149
3942.23525	0.34218
3940.30657	0.34606
3938.37788	0.35117
3936.44919	0.35415
3934.52051	0.35421
3932.59182	0.35218
3930.66313	0.35018
3928.73445	0.35147
3926.80576	0.35439
3924.87708	0.35428
3922.94839	0.35072
3921.01970	0.34791
3919.09102	0.34744
3917.16233	0.34788
3915.23364	0.34987
3913.30496	0.35199
3911.37627	0.35175
3909.44758	0.34910
3907.51890	0.34501
3905.59021	0.34242
3903.66152	0.34422
3901.73284	0.34908
3899.80415	0.35261
3897.87546	0.35321
3895.94678	0.35198
3894.01809	0.34915
3892.08940	0.34695
3890.16072	0.34895
3888.23203	0.35283
3886.30334	0.35317
3884.37466	0.35068
3882.44597	0.34981
3880.51729	0.35069
3878.58860	0.35048
3876.65991	0.35022
3874.73123	0.35062
3872.80254	0.34773
3870.87385	0.34385
3868.94517	0.34574
3867.01648	0.34972
3865.08779	0.35041
3863.15911	0.35055
3861.23042	0.35018
3859.30173	0.34833
3857.37305	0.34763
3855.44436	0.34848
3853.51567	0.35008
3851.58699	0.34971
3849.65830	0.34749
3847.72961	0.34752
3845.80093	0.34849
3843.87224	0.34720
3841.94355	0.34454
3840.01487	0.34336
3838.08618	0.34506
3836.15750	0.34917
3834.22881	0.35305
3832.30012	0.35445
3830.37144	0.35469
3828.44275	0.35353
3826.51406	0.35060
3824.58538	0.34937
3822.65669	0.35133
3820.72800	0.35456
3818.79932	0.35814
3816.87063	0.36124
3814.94194	0.36096
3813.01326	0.35693
3811.08457	0.35253
3809.15588	0.34977
3807.22720	0.34823
3805.29851	0.34627
3803.36982	0.34327
3801.44114	0.34141
3799.51245	0.34177
3797.58376	0.34269
3795.65508	0.34442
3793.72639	0.34788
3791.79771	0.35175
3789.86902	0.35365
3787.94033	0.35165
3786.01165	0.34578
3784.08296	0.34085
3782.15427	0.34242
3780.22559	0.34621
3778.29690	0.34537
3776.36821	0.34270
3774.43953	0.34253
3772.51084	0.34346
3770.58215	0.34433
3768.65347	0.34725
3766.72478	0.35070
3764.79609	0.35150
3762.86741	0.35114
3760.93872	0.34935
3759.01003	0.34556
3757.08135	0.34558
3755.15266	0.35027
3753.22397	0.35298
3751.29529	0.35276
3749.36660	0.35244
3747.43792	0.35329
3745.50923	0.35465
3743.58054	0.35146
3741.65186	0.34442
3739.72317	0.34100
3737.79448	0.34078
3735.86580	0.33906
3733.93711	0.33747
3732.00842	0.33869
3730.07974	0.34048
3728.15105	0.34156
3726.22236	0.34193
3724.29368	0.33980
3722.36499	0.33703
3720.43630	0.33663
3718.50762	0.33800
3716.57893	0.33984
3714.65024	0.34094
3712.72156	0.34141
3710.79287	0.34129
3708.86418	0.33991
3706.93550	0.33785
3705.00681	0.33549
3703.07812	0.33362
3701.14944	0.33367
3699.22075	0.33466
3697.29207	0.33383
3695.36338	0.33373
3693.43469	0.33850
3691.50601	0.34279
3689.57732	0.34015
3687.64863	0.33553
3685.71995	0.33613
3683.79126	0.33837
3681.86257	0.33863
3679.93389	0.34097
3678.00520	0.34465
3676.07651	0.34516
3674.14783	0.34395
3672.21914	0.34300
3670.29045	0.34025
3668.36177	0.33612
3666.43308	0.33317
3664.50439	0.33135
3662.57571	0.33066
3660.64702	0.33324
3658.71833	0.33842
3656.78965	0.33936
3654.86096	0.33519
3652.93228	0.33253
3651.00359	0.33145
3649.07490	0.33170
3647.14622	0.33621
3645.21753	0.34234
3643.28884	0.34532
3641.36016	0.34345
3639.43147	0.33875
3637.50278	0.33710
3635.57410	0.34058
3633.64541	0.34261
3631.71672	0.34074
3629.78804	0.33995
3627.85935	0.34042
3625.93066	0.34146
3624.00198	0.34432
3622.07329	0.34522
3620.14460	0.34228
3618.21592	0.33915
3616.28723	0.33548
3614.35854	0.33049
3612.42986	0.32908
3610.50117	0.33273
3608.57249	0.33589
3606.64380	0.33686
3604.71511	0.33932
3602.78643	0.34164
3600.85774	0.33960
3598.92905	0.33587
3597.00037	0.33570
3595.07168	0.33896
3593.14299	0.34107
3591.21431	0.34056
3589.28562	0.33970
3587.35693	0.33912
3585.42825	0.33795
3583.49956	0.33574
3581.57087	0.33418
3579.64219	0.33551
3577.71350	0.33793
3575.78481	0.33875
3573.85613	0.33876
3571.92744	0.33916
3569.99875	0.33907
3568.07007	0.33814
3566.14138	0.33799
3564.21270	0.33753
3562.28401	0.33410
3560.35532	0.32999
3558.42664	0.32942
3556.49795	0.33184
3554.56926	0.33357
3552.64058	0.33346
3550.71189	0.33115
3548.78320	0.32632
3546.85452	0.32481
3544.92583	0.33090
3542.99714	0.33670
3541.06846	0.33465
3539.13977	0.33041
3537.21108	0.33069
3535.28240	0.33155
3533.35371	0.32906
3531.42502	0.32837
3529.49634	0.33219
3527.56765	0.33450
3525.63896	0.33293
3523.71028	0.33215
3521.78159	0.33343
3519.85291	0.33342
3517.92422	0.33001
3515.99553	0.32633
3514.06685	0.32724
3512.13816	0.33196
3510.20947	0.33762
3508.28079	0.34167
3506.35210	0.34035
3504.42341	0.33563
3502.49473	0.33446
3500.56604	0.33691
3498.63735	0.33707
3496.70867	0.33495
3494.77998	0.33533
3492.85129	0.33855
3490.92261	0.34014
3488.99392	0.33744
3487.06523	0.33408
3485.13655	0.33336
3483.20786	0.33446
3481.27917	0.33727
3479.35049	0.34138
3477.42180	0.34333
3475.49312	0.34051
3473.56443	0.33636
3471.63574	0.33526
3469.70706	0.33597
3467.77837	0.33625
3465.84968	0.33747
3463.92100	0.33987
3461.99231	0.34006
3460.06362	0.33843
3458.13494	0.33725
3456.20625	0.33662
3454.27756	0.33718
3452.34888	0.33680
3450.42019	0.33290
3448.49150	0.32648
3446.56282	0.32367
3444.63413	0.32970
3442.70544	0.33789
3440.77676	0.34121
3438.84807	0.34287
3436.91938	0.34500
3434.99070	0.34435
3433.06201	0.34038
3431.13333	0.33617
3429.20464	0.33394
3427.27595	0.33341
3425.34727	0.33227
3423.41858	0.33232
3421.48989	0.33472
3419.56121	0.33474
3417.63252	0.33283
3415.70383	0.33318
3413.77515	0.33527
3411.84646	0.33565
3409.91777	0.33381
3407.98909	0.33177
3406.06040	0.33005
3404.13171	0.33094
3402.20303	0.33551
3400.27434	0.33894
3398.34565	0.33728
3396.41697	0.33460
3394.48828	0.33752
3392.55959	0.34292
3390.63091	0.34304
3388.70222	0.33901
3386.77354	0.33696
3384.84485	0.33862
3382.91616	0.34087
3380.98748	0.33953
3379.05879	0.33601
3377.13010	0.33617
3375.20142	0.33803
3373.27273	0.33663
3371.34404	0.33463
3369.41536	0.33538
3367.48667	0.33783
3365.55798	0.33820
3363.62930	0.33636
3361.70061	0.33743
3359.77192	0.34111
3357.84324	0.34187
3355.91455	0.33902
3353.98586	0.33639
3352.05718	0.33550
3350.12849	0.33448
3348.19980	0.33441
3346.27112	0.33912
3344.34243	0.34517
3342.41375	0.34480
3340.48506	0.33981
3338.55637	0.33746
3336.62769	0.33768
3334.69900	0.33712
3332.77031	0.33741
3330.84163	0.33868
3328.91294	0.33897
3326.98425	0.34015
3325.05557	0.34148
3323.12688	0.34206
3321.19819	0.34367
3319.26951	0.34401
3317.34082	0.34118
3315.41213	0.33691
3313.48345	0.33514
3311.55476	0.33744
3309.62607	0.33900
3307.69739	0.33779
3305.76870	0.33553
3303.84001	0.33285
3301.91133	0.33069
3299.98264	0.32992
3298.05396	0.33075
3296.12527	0.33180
3294.19658	0.33358
3292.26790	0.33675
3290.33921	0.33674
3288.41052	0.33382
3286.48184	0.33413
3284.55315	0.33636
3282.62446	0.33585
3280.69578	0.33534
3278.76709	0.33797
3276.83840	0.34115
3274.90972	0.34304
3272.98103	0.34308
3271.05234	0.34063
3269.12366	0.33954
3267.19497	0.34212
3265.26628	0.34266
3263.33760	0.33813
3261.40891	0.33399
3259.48022	0.33537
3257.55154	0.34083
3255.62285	0.34507
3253.69417	0.34556
3251.76548	0.34282
3249.83679	0.33867
3247.90811	0.33599
3245.97942	0.33490
3244.05073	0.33450
3242.12205	0.33535
3240.19336	0.33707
3238.26467	0.33982
3236.33599	0.34308
3234.40730	0.34450
3232.47861	0.34408
3230.54993	0.34378
3228.62124	0.34485
3226.69255	0.34607
3224.76387	0.34537
3222.83518	0.34342
3220.90649	0.34157
3218.97781	0.34004
3217.04912	0.33935
3215.12043	0.33899
3213.19175	0.33747
3211.26306	0.33573
3209.33437	0.33548
3207.40569	0.33511
3205.47700	0.33385
3203.54832	0.33382
3201.61963	0.33541
3199.69094	0.33771
3197.76226	0.33845
3195.83357	0.33556
3193.90488	0.33330
3191.97620	0.33604
3190.04751	0.33915
3188.11882	0.33777
3186.19014	0.33603
3184.26145	0.33776
3182.33276	0.33913
3180.40408	0.33930
3178.47539	0.34232
3176.54670	0.34508
3174.61802	0.34258
3172.68933	0.33827
3170.76064	0.33676
3168.83196	0.33657
3166.90327	0.33624
3164.97458	0.33859
3163.04590	0.34267
3161.11721	0.34379
3159.18853	0.34341
3157.25984	0.34319
3155.33115	0.34063
3153.40247	0.33830
3151.47378	0.34003
3149.54509	0.34204
3147.61641	0.34024
3145.68772	0.33774
3143.75903	0.33734
3141.83035	0.33721
3139.90166	0.33706
3137.97297	0.33853
3136.04429	0.34142
3134.11560	0.34408
3132.18691	0.34430
3130.25823	0.34048
3128.32954	0.33371
3126.40085	0.32900
3124.47217	0.32988
3122.54348	0.33408
3120.61479	0.33740
3118.68611	0.33706
3116.75742	0.33582
3114.82874	0.33830
3112.90005	0.34135
3110.97136	0.34087
3109.04268	0.33906
3107.11399	0.33725
3105.18530	0.33525
3103.25662	0.33388
3101.32793	0.33273
3099.39924	0.33157
3097.47056	0.33034
3095.54187	0.32940
3093.61318	0.33081
3091.68450	0.33442
3089.75581	0.33693
3087.82712	0.33570
3085.89844	0.33197
3083.96975	0.32951
3082.04106	0.32952
3080.11238	0.33170
3078.18369	0.33491
3076.25500	0.33641
3074.32632	0.33755
3072.39763	0.34086
3070.46895	0.34290
3068.54026	0.34063
3066.61157	0.33641
3064.68289	0.33376
3062.75420	0.33429
3060.82551	0.33654
3058.89683	0.33885
3056.96814	0.34128
3055.03945	0.34246
3053.11077	0.34066
3051.18208	0.33763
3049.25339	0.33549
3047.32471	0.33373
3045.39602	0.33294
3043.46733	0.33425
3041.53865	0.33649
3039.60996	0.33781
3037.68127	0.33619
3035.75259	0.33222
3033.82390	0.33099
3031.89521	0.33463
3029.96653	0.33846
3028.03784	0.33925
3026.10916	0.33844
3024.18047	0.33841
3022.25178	0.33979
3020.32310	0.34044
3018.39441	0.34011
3016.46572	0.34067
3014.53704	0.34102
3012.60835	0.33985
3010.67966	0.33772
3008.75098	0.33619
3006.82229	0.33717
3004.89360	0.33991
3002.96492	0.34178
3001.03623	0.34202
2999.10754	0.34148
2997.17886	0.34072
2995.25017	0.33931
2993.32148	0.33754
2991.39280	0.33660
2989.46411	0.33615
2987.53542	0.33578
2985.60674	0.33579
2983.67805	0.33546
2981.74937	0.33438
2979.82068	0.33346
2977.89199	0.33403
2975.96331	0.33572
2974.03462	0.33697
2972.10593	0.33786
2970.17725	0.33802
2968.24856	0.33671
2966.31987	0.33617
2964.39119	0.33803
2962.46250	0.33976
2960.53381	0.33837
2958.60513	0.33543
2956.67644	0.33537
2954.74775	0.33832
2952.81907	0.34034
2950.89038	0.33919
2948.96169	0.33581
2947.03301	0.33359
2945.10432	0.33501
2943.17563	0.33893
2941.24695	0.34154
2939.31826	0.33914
2937.38958	0.33432
2935.46089	0.33229
2933.53220	0.33201
2931.60352	0.33100
2929.67483	0.33039
2927.74614	0.33147
2925.81746	0.33405
2923.88877	0.33690
2921.96008	0.33893
2920.03140	0.33949
2918.10271	0.33965
2916.17402	0.34201
2914.24534	0.34430
2912.31665	0.34220
2910.38796	0.33790
2908.45928	0.33491
2906.53059	0.33394
2904.60190	0.33580
2902.67322	0.33832
2900.74453	0.33903
2898.81584	0.33966
2896.88716	0.33979
2894.95847	0.33943
2893.02979	0.34054
2891.10110	0.33953
2889.17241	0.33560
2887.24373	0.33365
2885.31504	0.33366
2883.38635	0.33411
2881.45767	0.33527
2879.52898	0.33348
2877.60029	0.32799
2875.67161	0.32680
2873.74292	0.33114
2871.81423	0.33404
2869.88555	0.33563
2867.95686	0.33715
2866.02817	0.33680
2864.09949	0.33592
2862.17080	0.33503
2860.24211	0.33487
2858.31343	0.33615
2856.38474	0.33548
2854.45605	0.33306
2852.52737	0.33333
2850.59868	0.33624
2848.67000	0.33795
2846.74131	0.33629
2844.81262	0.33322
2842.88394	0.33291
2840.95525	0.33557
2839.02656	0.33653
2837.09788	0.33532
2835.16919	0.33562
2833.24050	0.33641
2831.31182	0.33526
2829.38313	0.33380
2827.45444	0.33378
2825.52576	0.33444
2823.59707	0.33552
2821.66838	0.33672
2819.73970	0.33661
2817.81101	0.33546
2815.88232	0.33476
2813.95364	0.33586
2812.02495	0.33708
2810.09626	0.33573
2808.16758	0.33472
2806.23889	0.33569
2804.31021	0.33639
2802.38152	0.33651
2800.45283	0.33651
2798.52415	0.33789
2796.59546	0.34042
2794.66677	0.34007
2792.73809	0.33648
2790.80940	0.33403
2788.88071	0.33486
2786.95203	0.33698
2785.02334	0.33750
2783.09465	0.33582
2781.16597	0.33491
2779.23728	0.33670
2777.30859	0.33814
2775.37991	0.33567
2773.45122	0.33092
2771.52253	0.32873
2769.59385	0.32983
2767.66516	0.33106
2765.73647	0.33005
2763.80779	0.32790
2761.87910	0.32866
2759.95042	0.33225
2758.02173	0.33433
2756.09304	0.33447
2754.16436	0.33570
2752.23567	0.33725
2750.30698	0.33590
2748.37830	0.33335
2746.44961	0.33291
2744.52092	0.33340
2742.59224	0.33344
2740.66355	0.33457
2738.73486	0.33577
2736.80618	0.33400
2734.87749	0.33160
2732.94880	0.33221
2731.02012	0.33481
2729.09143	0.33687
2727.16274	0.33750
2725.23406	0.33824
2723.30537	0.33896
2721.37668	0.33815
2719.44800	0.33705
2717.51931	0.33597
2715.59062	0.33338
2713.66194	0.33023
2711.73325	0.32893
2709.80457	0.33000
2707.87588	0.33301
2705.94719	0.33653
2704.01851	0.33770
2702.08982	0.33624
2700.16113	0.33487
2698.23245	0.33433
2696.30376	0.33313
2694.37507	0.33221
2692.44639	0.33314
2690.51770	0.33479
2688.58901	0.33562
2686.66033	0.33542
2684.73164	0.33477
2682.80295	0.33385
2680.87427	0.33385
2678.94558	0.33513
2677.01689	0.33459
2675.08821	0.33202
2673.15952	0.33117
2671.23083	0.33334
2669.30215	0.33572
2667.37346	0.33533
2665.44478	0.33288
2663.51609	0.33159
2661.58740	0.33301
2659.65872	0.33497
2657.73003	0.33544
2655.80134	0.33517
2653.87266	0.33494
2651.94397	0.33451
2650.01528	0.33405
2648.08660	0.33389
2646.15791	0.33357
2644.22922	0.33313
2642.30054	0.33229
2640.37185	0.33037
2638.44316	0.32982
2636.51448	0.33322
2634.58579	0.33785
2632.65710	0.33927
2630.72842	0.33692
2628.79973	0.33425
2626.87104	0.33439
2624.94236	0.33539
2623.01367	0.33467
2621.08499	0.33404
2619.15630	0.33396
2617.22761	0.33258
2615.29893	0.33140
2613.37024	0.33295
2611.44155	0.33552
2609.51287	0.33589
2607.58418	0.33400
2605.65549	0.33180
2603.72681	0.33089
2601.79812	0.33188
2599.86943	0.33399
2597.94075	0.33518
2596.01206	0.33546
2594.08337	0.33635
2592.15469	0.33667
2590.22600	0.33619
2588.29731	0.33568
2586.36863	0.33452
2584.43994	0.33439
2582.51125	0.33595
2580.58257	0.33670
2578.65388	0.33655
2576.72520	0.33674
2574.79651	0.33684
2572.86782	0.33691
2570.93914	0.33633
2569.01045	0.33405
2567.08176	0.33170
2565.15308	0.33028
2563.22439	0.32922
2561.29570	0.32909
2559.36702	0.32972
2557.43833	0.33090
2555.50964	0.33226
2553.58096	0.33264
2551.65227	0.33313
2549.72358	0.33472
2547.79490	0.33694
2545.86621	0.33853
2543.93752	0.33742
2542.00884	0.33513
2540.08015	0.33462
2538.15146	0.33476
2536.22278	0.33376
2534.29409	0.33284
2532.36541	0.33354
2530.43672	0.33531
2528.50803	0.33661
2526.57935	0.33632
2524.65066	0.33574
2522.72197	0.33651
2520.79329	0.33701
2518.86460	0.33579
2516.93591	0.33301
2515.00723	0.33051
2513.07854	0.33182
2511.14985	0.33565
2509.22117	0.33745
2507.29248	0.33726
2505.36379	0.33660
2503.43511	0.33565
2501.50642	0.33569
2499.57773	0.33674
2497.64905	0.33698
2495.72036	0.33586
2493.79167	0.33426
2491.86299	0.33379
2489.93430	0.33533
2488.00562	0.33688
2486.07693	0.33511
2484.14824	0.33050
2482.21956	0.32763
2480.29087	0.32846
2478.36218	0.33069
2476.43350	0.33185
2474.50481	0.33086
2472.57612	0.32834
2470.64744	0.32771
2468.71875	0.33145
2466.79006	0.33611
2464.86138	0.33741
2462.93269	0.33612
2461.00400	0.33440
2459.07532	0.33313
2457.14663	0.33242
2455.21794	0.33242
2453.28926	0.33369
2451.36057	0.33538
2449.43188	0.33611
2447.50320	0.33614
2445.57451	0.33697
2443.64583	0.33823
2441.71714	0.33792
2439.78845	0.33685
2437.85977	0.33614
2435.93108	0.33444
2434.00239	0.33210
2432.07371	0.33105
2430.14502	0.33147
2428.21633	0.33236
2426.28765	0.33243
2424.35896	0.33147
2422.43027	0.33208
2420.50159	0.33478
2418.57290	0.33683
2416.64421	0.33740
2414.71553	0.33653
2412.78684	0.33410
2410.85815	0.33078
2408.92947	0.32807
2407.00078	0.32850
2405.07209	0.33163
2403.14341	0.33422
2401.21472	0.33566
2399.28604	0.33706
2397.35735	0.33836
2395.42866	0.33790
2393.49998	0.33492
2391.57129	0.33283
2389.64260	0.33376
2387.71392	0.33535
2385.78523	0.33542
2383.85654	0.33447
2381.92786	0.33452
2379.99917	0.33599
2378.07048	0.33730
2376.14180	0.33673
2374.21311	0.33475
2372.28442	0.33374
2370.35574	0.33435
2368.42705	0.33559
2366.49836	0.33595
2364.56968	0.33581
2362.64099	0.33695
2360.71230	0.33799
2358.78362	0.33751
2356.85493	0.33717
2354.92625	0.33775
2352.99756	0.33749
2351.06887	0.33572
2349.14019	0.33396
2347.21150	0.33310
2345.28281	0.33290
2343.35413	0.33285
2341.42544	0.33420
2339.49675	0.33761
2337.56807	0.33956
2335.63938	0.33855
2333.71069	0.33786
2331.78201	0.33872
2329.85332	0.33833
2327.92463	0.33528
2325.99595	0.33225
2324.06726	0.33236
2322.13857	0.33480
2320.20989	0.33561
2318.28120	0.33467
2316.35251	0.33540
2314.42383	0.33651
2312.49514	0.33505
2310.56646	0.33290
2308.63777	0.33239
2306.70908	0.33298
2304.78040	0.33338
2302.85171	0.33352
2300.92302	0.33455
2298.99434	0.33583
2297.06565	0.33561
2295.13696	0.33425
2293.20828	0.33202
2291.27959	0.32906
2289.35090	0.32717
2287.42222	0.32722
2285.49353	0.32813
2283.56484	0.32922
2281.63616	0.33092
2279.70747	0.33254
2277.77878	0.33276
2275.85010	0.33192
2273.92141	0.33173
2271.99272	0.33312
2270.06404	0.33463
2268.13535	0.33547
2266.20667	0.33568
2264.27798	0.33416
2262.34929	0.33167
2260.42061	0.32948
2258.49192	0.32874
2256.56323	0.33165
2254.63455	0.33614
2252.70586	0.33745
2250.77717	0.33495
2248.84849	0.33175
2246.91980	0.33091
2244.99111	0.33217
2243.06243	0.33316
2241.13374	0.33285
2239.20505	0.33219
2237.27637	0.33314
2235.34768	0.33484
2233.41899	0.33431
2231.49031	0.33296
2229.56162	0.33276
2227.63293	0.33222
2225.70425	0.33228
2223.77556	0.33487
2221.84687	0.33748
2219.91819	0.33683
2217.98950	0.33387
2216.06082	0.33200
2214.13213	0.33160
2212.20344	0.33129
2210.27476	0.33223
2208.34607	0.33415
2206.41738	0.33477
2204.48870	0.33464
2202.56001	0.33480
2200.63132	0.33415
2198.70264	0.33197
2196.77395	0.33011
2194.84526	0.33122
2192.91658	0.33416
2190.98789	0.33537
2189.05920	0.33452
2187.13052	0.33338
2185.20183	0.33238
2183.27314	0.33244
2181.34446	0.33354
2179.41577	0.33363
2177.48708	0.33360
2175.55840	0.33489
2173.62971	0.33535
2171.70103	0.33421
2169.77234	0.33357
2167.84365	0.33453
2165.91497	0.33577
2163.98628	0.33511
2162.05759	0.33354
2160.12891	0.33290
2158.20022	0.33236
2156.27153	0.33244
2154.34285	0.33326
2152.41416	0.33296
2150.48547	0.33219
2148.55679	0.33163
2146.62810	0.33057
2144.69941	0.32982
2142.77073	0.33043
2140.84204	0.33172
2138.91335	0.33226
2136.98467	0.33187
2135.05598	0.33140
2133.12729	0.33162
2131.19861	0.33246
2129.26992	0.33296
2127.34124	0.33289
2125.41255	0.33237
2123.48386	0.33082
2121.55518	0.32979
2119.62649	0.33114
2117.69780	0.33269
2115.76912	0.33252
2113.84043	0.33208
2111.91174	0.33144
2109.98306	0.32977
2108.05437	0.32897
2106.12568	0.33014
2104.19700	0.33188
2102.26831	0.33309
2100.33962	0.33319
2098.41094	0.33257
2096.48225	0.33172
2094.55356	0.33129
2092.62488	0.33313
2090.69619	0.33534
2088.76750	0.33408
2086.83882	0.33165
2084.91013	0.33100
2082.98145	0.33129
2081.05276	0.33318
2079.12407	0.33619
2077.19539	0.33749
2075.26670	0.33641
2073.33801	0.33382
2071.40933	0.33126
2069.48064	0.33042
2067.55195	0.33153
2065.62327	0.33283
2063.69458	0.33322
2061.76589	0.33358
2059.83721	0.33299
2057.90852	0.33160
2055.97983	0.33223
2054.05115	0.33395
2052.12246	0.33434
2050.19377	0.33349
2048.26509	0.33207
2046.33640	0.33120
2044.40771	0.33164
2042.47903	0.33276
2040.55034	0.33315
2038.62166	0.33205
2036.69297	0.33019
2034.76428	0.32859
2032.83560	0.32836
2030.90691	0.32921
2028.97822	0.32882
2027.04954	0.32788
2025.12085	0.32959
2023.19216	0.33220
2021.26348	0.33187
2019.33479	0.32997
2017.40610	0.32869
2015.47742	0.32767
2013.54873	0.32785
2011.62004	0.32973
2009.69136	0.33129
2007.76267	0.33137
2005.83398	0.33065
2003.90530	0.33054
2001.97661	0.33255
2000.04792	0.33543
1998.11924	0.33665
1996.19055	0.33683
1994.26187	0.33649
1992.33318	0.33438
1990.40449	0.33154
1988.47581	0.33044
1986.54712	0.33145
1984.61843	0.33360
1982.68975	0.33509
1980.76106	0.33403
1978.83237	0.33186
1976.90369	0.33110
1974.97500	0.33154
1973.04631	0.33241
1971.11763	0.33360
1969.18894	0.33468
1967.26025	0.33555
1965.33157	0.33600
1963.40288	0.33477
1961.47419	0.33262
1959.54551	0.33169
1957.61682	0.33165
1955.68813	0.33178
1953.75945	0.33203
1951.83076	0.33227
1949.90208	0.33223
1947.97339	0.33145
1946.04470	0.33108
1944.11602	0.33231
1942.18733	0.33355
1940.25864	0.33321
1938.32996	0.33319
1936.40127	0.33440
1934.47258	0.33391
1932.54390	0.33189
1930.61521	0.33155
1928.68652	0.33237
1926.75784	0.33224
1924.82915	0.33203
1922.90046	0.33228
1920.97178	0.33128
1919.04309	0.32941
1917.11440	0.32818
1915.18572	0.32766
1913.25703	0.32810
1911.32834	0.32984
1909.39966	0.33235
1907.47097	0.33368
1905.54229	0.33279
1903.61360	0.33222
1901.68491	0.33343
1899.75623	0.33436
1897.82754	0.33393
1895.89885	0.33331
1893.97017	0.33378
1892.04148	0.33452
1890.11279	0.33348
1888.18411	0.33146
1886.25542	0.33094
1884.32673	0.33219
1882.39805	0.33342
1880.46936	0.33276
1878.54067	0.33115
1876.61199	0.33104
1874.68330	0.33229
1872.75461	0.33369
1870.82593	0.33459
1868.89724	0.33385
1866.96855	0.33188
1865.03987	0.33070
1863.11118	0.32998
1861.18250	0.32911
1859.25381	0.32947
1857.32512	0.32970
1855.39644	0.32835
1853.46775	0.32822
1851.53906	0.32995
1849.61038	0.33104
1847.68169	0.33162
1845.75300	0.33332
1843.82432	0.33492
1841.89563	0.33437
1839.96694	0.33255
1838.03826	0.33154
1836.10957	0.33158
1834.18088	0.33169
1832.25220	0.33251
1830.32351	0.33458
1828.39482	0.33553
1826.46614	0.33426
1824.53745	0.33300
1822.60876	0.33272
1820.68008	0.33278
1818.75139	0.33350
1816.82271	0.33490
1814.89402	0.33621
1812.96533	0.33607
1811.03665	0.33326
1809.10796	0.33008
1807.17927	0.32921
1805.25059	0.32931
1803.32190	0.32887
1801.39321	0.32878
1799.46453	0.33000
1797.53584	0.33164
1795.60715	0.33251
1793.67847	0.33345
1791.74978	0.33489
1789.82109	0.33563
1787.89241	0.33495
1785.96372	0.33340
1784.03503	0.33205
1782.10635	0.33138
1780.17766	0.33198
1778.24897	0.33327
1776.32029	0.33313
1774.39160	0.33282
1772.46292	0.33428
1770.53423	0.33545
1768.60554	0.33492
1766.67686	0.33389
1764.74817	0.33306
1762.81948	0.33269
1760.89080	0.33300
1758.96211	0.33332
1757.03342	0.33299
1755.10474	0.33224
1753.17605	0.33239
1751.24736	0.33446
1749.31868	0.33626
1747.38999	0.33472
1745.46130	0.33180
1743.53262	0.33099
1741.60393	0.33188
1739.67524	0.33337
1737.74656	0.33481
1735.81787	0.33554
1733.88918	0.33640
1731.96050	0.33653
1730.03181	0.33440
1728.10312	0.33238
1726.17444	0.33365
1724.24575	0.33707
1722.31707	0.33900
1720.38838	0.33932
1718.45969	0.33948
1716.53101	0.33816
1714.60232	0.33610
1712.67363	0.33539
1710.74495	0.33475
1708.81626	0.33343
1706.88757	0.33207
1704.95889	0.33167
1703.03020	0.33432
1701.10151	0.33849
1699.17283	0.34007
1697.24414	0.33880
1695.31545	0.33617
1693.38677	0.33308
1691.45808	0.33112
1689.52939	0.33222
1687.60071	0.33575
1685.67202	0.33693
1683.74333	0.33381
1681.81465	0.33137
1679.88596	0.33178
1677.95728	0.33331
1676.02859	0.33534
1674.09990	0.33619
1672.17122	0.33549
1670.24253	0.33588
1668.31384	0.33751
1666.38516	0.33797
1664.45647	0.33586
1662.52778	0.33219
1660.59910	0.33031
1658.67041	0.33136
1656.74172	0.33385
1654.81304	0.33730
1652.88435	0.34034
1650.95566	0.34061
1649.02698	0.33798
1647.09829	0.33458
1645.16960	0.33305
1643.24092	0.33329
1641.31223	0.33337
1639.38354	0.33310
1637.45486	0.33291
1635.52617	0.33272
1633.59749	0.33281
1631.66880	0.33355
1629.74011	0.33504
1627.81143	0.33610
1625.88274	0.33638
1623.95405	0.33741
1622.02537	0.33829
1620.09668	0.33750
1618.16799	0.33576
1616.23931	0.33487
1614.31062	0.33622
1612.38193	0.33789
1610.45325	0.33771
1608.52456	0.33714
1606.59587	0.33765
1604.66719	0.33766
1602.73850	0.33589
1600.80981	0.33438
1598.88113	0.33383
1596.95244	0.33307
1595.02375	0.33345
1593.09507	0.33459
1591.16638	0.33385
1589.23770	0.33148
1587.30901	0.32930
1585.38032	0.32844
1583.45164	0.32826
1581.52295	0.32779
1579.59426	0.32809
1577.66558	0.32953
1575.73689	0.33065
1573.80820	0.33092
1571.87952	0.33137
1569.95083	0.33267
1568.02214	0.33377
1566.09346	0.33394
1564.16477	0.33432
1562.23608	0.33551
1560.30740	0.33690
1558.37871	0.33713
1556.45002	0.33569
1554.52134	0.33536
1552.59265	0.33722
1550.66396	0.33847
1548.73528	0.33742
1546.80659	0.33519
1544.87791	0.33348
1542.94922	0.33288
1541.02053	0.33333
1539.09185	0.33390
1537.16316	0.33359
1535.23447	0.33317
1533.30579	0.33288
1531.37710	0.33221
1529.44841	0.33227
1527.51973	0.33410
1525.59104	0.33626
1523.66235	0.33710
1521.73367	0.33711
1519.80498	0.33710
1517.87629	0.33653
1515.94761	0.33559
1514.01892	0.33519
1512.09023	0.33519
1510.16155	0.33580
1508.23286	0.33618
1506.30417	0.33448
1504.37549	0.33242
1502.44680	0.33222
1500.51812	0.33257
1498.58943	0.33268
1496.66074	0.33336
1494.73206	0.33408
1492.80337	0.33463
1490.87468	0.33551
1488.94600	0.33565
1487.01731	0.33359
1485.08862	0.33081
1483.15994	0.32952
1481.23125	0.32875
1479.30256	0.32805
1477.37388	0.32881
1475.44519	0.33090
1473.51650	0.33273
1471.58782	0.33220
1469.65913	0.33020
1467.73044	0.32999
1465.80176	0.33076
1463.87307	0.32939
1461.94438	0.32705
1460.01570	0.32740
1458.08701	0.33053
1456.15833	0.33272
1454.22964	0.33133
1452.30095	0.32879
1450.37227	0.32889
1448.44358	0.33104
1446.51489	0.33169
1444.58621	0.33088
1442.65752	0.33236
1440.72883	0.33508
1438.80015	0.33558
1436.87146	0.33446
1434.94277	0.33283
1433.01409	0.33203
1431.08540	0.33335
1429.15671	0.33441
1427.22803	0.33399
1425.29934	0.33367
1423.37065	0.33351
1421.44197	0.33407
1419.51328	0.33545
1417.58459	0.33529
1415.65591	0.33413
1413.72722	0.33387
1411.79854	0.33318
1409.86985	0.33201
1407.94116	0.33164
1406.01248	0.33092
1404.08379	0.33010
1402.15510	0.33089
1400.22642	0.33232
1398.29773	0.33321
1396.36904	0.33351
1394.44036	0.33353
1392.51167	0.33342
1390.58298	0.33263
1388.65430	0.33155
1386.72561	0.33188
1384.79692	0.33365
1382.86824	0.33510
1380.93955	0.33560
1379.01086	0.33624
1377.08218	0.33742
1375.15349	0.33690
1373.22480	0.33506
1371.29612	0.33464
1369.36743	0.33400
1367.43875	0.33202
1365.51006	0.33063
1363.58137	0.33053
1361.65269	0.33130
1359.72400	0.33111
1357.79531	0.32900
1355.86663	0.32670
1353.93794	0.32577
1352.00925	0.32656
1350.08057	0.32815
1348.15188	0.32899
1346.22319	0.32884
1344.29451	0.32853
1342.36582	0.32862
1340.43713	0.32915
1338.50845	0.32986
1336.57976	0.33015
1334.65107	0.33073
1332.72239	0.33263
1330.79370	0.33382
1328.86501	0.33287
1326.93633	0.33136
1325.00764	0.32999
1323.07896	0.32886
1321.15027	0.32933
1319.22158	0.33189
1317.29290	0.33404
1315.36421	0.33429
1313.43552	0.33381
1311.50684	0.33245
1309.57815	0.33133
1307.64946	0.33124
1305.72078	0.32980
1303.79209	0.32856
1301.86340	0.33045
1299.93472	0.33159
1298.00603	0.32964
1296.07734	0.32999
1294.14866	0.33288
1292.21997	0.33270
1290.29128	0.33069
1288.36260	0.33045
1286.43391	0.33076
1284.50522	0.33071
1282.57654	0.33097
1280.64785	0.33102
1278.71917	0.33094
1276.79048	0.33180
1274.86179	0.33258
1272.93311	0.33239
1271.00442	0.33259
1269.07573	0.33310
1267.14705	0.33269
1265.21836	0.33200
1263.28967	0.33230
1261.36099	0.33340
1259.43230	0.33404
1257.50361	0.33406
1255.57493	0.33372
1253.64624	0.33343
1251.71755	0.33411
1249.78887	0.33421
1247.86018	0.33216
1245.93149	0.32997
1244.00281	0.32919
1242.07412	0.32891
1240.14543	0.32838
1238.21675	0.32872
1236.28806	0.32992
1234.35937	0.32969
1232.43069	0.32835
1230.50200	0.32847
1228.57332	0.32968
1226.64463	0.32971
1224.71594	0.32866
1222.78726	0.32938
1220.85857	0.33262
1218.92988	0.33494
1217.00120	0.33452
1215.07251	0.33311
1213.14382	0.33329
1211.21514	0.33498
1209.28645	0.33526
1207.35776	0.33392
1205.42908	0.33223
1203.50039	0.33062
1201.57170	0.33060
1199.64302	0.33126
1197.71433	0.32946
1195.78564	0.32680
1193.85696	0.32679
1191.92827	0.32837
1189.99958	0.32920
1188.07090	0.32891
1186.14221	0.32844
1184.21353	0.32939
1182.28484	0.33163
1180.35615	0.33301
1178.42747	0.33288
1176.49878	0.33272
1174.57009	0.33283
1172.64141	0.33280
1170.71272	0.33259
1168.78403	0.33254
1166.85535	0.33356
1164.92666	0.33450
1162.99797	0.33339
1161.06929	0.33179
1159.14060	0.33250
1157.21191	0.33427
1155.28323	0.33437
1153.35454	0.33312
1151.42585	0.33201
1149.49717	0.33155
1147.56848	0.33114
1145.63979	0.33024
1143.71111	0.32868
1141.78242	0.32709
1139.85374	0.32724
1137.92505	0.32785
1135.99636	0.32648
1134.06768	0.32532
1132.13899	0.32465
1130.21030	0.32308
1128.28162	0.32484
1126.35293	0.33094
1124.42424	0.33550
1122.49556	0.33574
1120.56687	0.33428
1118.63818	0.33277
1116.70950	0.33016
1114.78081	0.32770
1112.85212	0.32750
1110.92344	0.32853
1108.99475	0.32898
1107.06606	0.32868
1105.13738	0.32753
1103.20869	0.32608
1101.28000	0.32678
1099.35132	0.32974
1097.42263	0.33229
1095.49395	0.33322
1093.56526	0.33509
1091.63657	0.33827
1089.70789	0.33860
1087.77920	0.33605
1085.85051	0.33217
1083.92183	0.32922
1081.99314	0.33057
1080.06445	0.33269
1078.13577	0.33251
1076.20708	0.33261
1074.27839	0.33314
1072.34971	0.33186
1070.42102	0.32929
1068.49233	0.32838
1066.56365	0.32945
1064.63496	0.32889
1062.70627	0.32587
1060.77759	0.32346
1058.84890	0.32288
1056.92021	0.32389
1054.99153	0.32593
1053.06284	0.32910
1051.13416	0.33153
1049.20547	0.32993
1047.27678	0.32900
1045.34810	0.33188
1043.41941	0.33242
1041.49072	0.32989
1039.56204	0.32846
1037.63335	0.32762
1035.70466	0.32573
1033.77598	0.32417
1031.84729	0.32525
1029.91860	0.32832
1027.98992	0.33086
1026.06123	0.33121
1024.13254	0.32897
1022.20386	0.32680
1020.27517	0.32691
1018.34648	0.32735
1016.41780	0.32658
1014.48911	0.32513
1012.56042	0.32487
1010.63174	0.32595
1008.70305	0.32757
1006.77437	0.33046
1004.84568	0.33238
1002.91699	0.33191
1000.98831	0.33140
999.05962	0.33129
997.13093	0.32958
995.20225	0.32654
993.27356	0.32585
991.34487	0.32767
989.41619	0.32842
987.48750	0.32815
985.55881	0.32805
983.63013	0.32762
981.70144	0.32540
979.77275	0.32185
977.84407	0.32065
975.91538	0.32235
973.98669	0.32498
972.05801	0.32654
970.12932	0.32577
968.20063	0.32532
966.27195	0.32642
964.34326	0.32830
962.41458	0.32958
960.48589	0.32750
958.55720	0.32422
956.62852	0.32306
954.69983	0.32195
952.77114	0.32002
950.84246	0.32027
948.91377	0.32270
946.98508	0.32332
945.05640	0.32137
943.12771	0.32028
941.19902	0.32227
939.27034	0.32539
937.34165	0.32521
935.41296	0.32184
933.48428	0.32015
931.55559	0.32103
929.62690	0.32260
927.69822	0.32515
925.76953	0.32747
923.84084	0.32738
921.91216	0.32521
919.98347	0.32260
918.05479	0.32072
916.12610	0.31989
914.19741	0.32120
912.26873	0.32497
910.34004	0.32793
908.41135	0.32753
906.48267	0.32436
904.55398	0.31954
902.62529	0.31637
900.69661	0.31748
898.76792	0.32104
896.83923	0.32444
894.91055	0.32590
892.98186	0.32520
891.05317	0.32481
889.12449	0.32554
887.19580	0.32342
885.26711	0.31810
883.33843	0.31627
881.40974	0.32027
879.48105	0.32372
877.55237	0.32164
875.62368	0.31930
873.69500	0.32085
871.76631	0.32194
869.83762	0.32163
867.90894	0.32141
865.98025	0.32095
864.05156	0.32107
862.12288	0.32129
860.19419	0.31977
858.26550	0.31781
856.33682	0.31776
854.40813	0.31835
852.47944	0.31857
850.55076	0.31983
848.62207	0.32358
846.69338	0.32851
844.76470	0.32916
842.83601	0.32486
840.90732	0.32275
838.97864	0.32614
837.04995	0.32870
835.12126	0.32592
833.19258	0.32364
831.26389	0.32533
829.33521	0.32413
827.40652	0.31759
825.47783	0.31298
823.54915	0.31304
821.62046	0.31609
819.69177	0.32104
817.76309	0.32367
815.83440	0.32208
813.90571	0.31923
811.97703	0.31664
810.04834	0.31429
808.11965	0.31355
806.19097	0.31415
804.26228	0.31477
802.33359	0.31665
800.40491	0.31945
798.47622	0.31929
796.54753	0.31390
794.61885	0.30704
792.69016	0.30468
790.76147	0.30791
788.83279	0.31230
786.90410	0.31312
784.97542	0.31011
783.04673	0.30742
781.11804	0.30944
779.18936	0.31341
777.26067	0.31275
775.33198	0.31028
773.40330	0.31031
771.47461	0.30737
769.54592	0.30189
767.61724	0.30144
765.68855	0.30253
763.75986	0.30032
761.83118	0.29701
759.90249	0.29387
757.97380	0.29371
756.04512	0.29582
754.11643	0.29523
752.18774	0.29307
750.25906	0.29275
748.33037	0.29295
746.40168	0.29382
744.47300	0.29666
742.54431	0.29470
740.61562	0.28444
738.68694	0.27471
736.75825	0.27261
734.82957	0.27534
732.90088	0.27915
730.97219	0.28491
729.04351	0.29097
727.11482	0.29383
725.18613	0.29261
723.25745	0.29002
721.32876	0.29035
719.40007	0.29238
717.47139	0.29184
715.54270	0.28731
713.61401	0.28094
711.68533	0.27647
709.75664	0.27594
707.82795	0.27747
705.89927	0.27911
703.97058	0.28229
702.04189	0.28336
700.11321	0.27973
698.18452	0.27805
696.25583	0.27933
694.32715	0.27936
692.39846	0.27996
690.46978	0.28287
688.54109	0.28562
686.61240	0.28713
684.68372	0.28768
682.75503	0.28679
680.82634	0.28506
678.89766	0.28348
676.96897	0.28332
675.04028	0.28414
673.11160	0.28332
671.18291	0.28311
669.25422	0.28554
667.32554	0.28774
665.39685	0.28706
663.46816	0.28196
661.53948	0.27955
659.61079	0.28650
657.68210	0.29374
655.75342	0.29385
653.82473	0.29012
651.89604	0.28582
649.96736	0.28160
648.03867	0.27845
646.10999	0.27772
644.18130	0.27986
642.25261	0.28240
640.32393	0.28595
638.39524	0.29342
636.46655	0.29430
634.53787	0.28509
632.60918	0.27939
630.68049	0.27539
628.75181	0.26990
626.82312	0.27449
624.89443	0.28601
622.96575	0.29326
621.03706	0.29860
619.10837	0.30168
617.17969	0.29524
615.25100	0.28720
613.32231	0.29320
611.39363	0.30019
609.46494	0.28775
607.53625	0.27178
605.60757	0.26729
603.67888	0.26246
601.75020	0.25519
599.82151	0.25519
597.89282	0.26367
595.96414	0.27855
594.03545	0.28264
592.10676	0.26666
590.17808	0.25873
588.24939	0.26827
586.32070	0.27973
584.39202	0.28578
582.46333	0.27621
580.53464	0.26252
578.60596	0.25581
576.67727	0.24800
574.74858	0.24188
572.81990	0.22906
570.89121	0.21277
568.96252	0.21573
567.03384	0.21906
565.10515	0.20493
563.17646	0.20474
561.24778	0.23341
559.31909	0.25469
557.39041	0.24385
555.46172	0.22349
553.53303	0.20992
551.60435	0.19536
549.67566	0.17927
547.74697	0.16874
545.81829	0.17318
543.88960	0.17862
541.96091	0.16620
540.03223	0.16932
538.10354	0.20110
536.17485	0.21636
534.24617	0.20061
532.31748	0.16630
530.38879	0.14985
528.46011	0.18009
526.53142	0.23734
524.60273	0.29653
522.67405	0.30695
520.74536	0.24142
518.81667	0.20316
516.88799	0.30442
514.95930	0.50254
513.03062	0.59234
511.10193	0.50821
509.17324	0.46627
507.24456	0.49025
505.31587	0.49474
503.38718	0.51620
501.45850	0.57359
499.52981	1.07939
497.60112	5.13261
495.67244	5.47924
493.74375	3.82034
491.81506	1.72933
489.88638	-0.11001
487.95769	-0.48676
486.02900	-0.42978
484.10032	-0.34103
482.17163	-0.27572
480.24294	-0.10302
478.31426	0.05151
476.38557	0.07393
474.45688	0.37578
472.52820	0.37578
470.59951	-8.99113
468.67083	-8.99113
466.74214	2.79367
464.81345	0.86224
462.88477	0.59117
460.95608	0.24618
459.02739	0.07204
457.09871	0.51944
455.17002	0.59452
453.24133	0.20208
451.31265	-0.02214
449.38396	0.12077
447.45527	0.48336
445.52659	3.01548
443.59790	0.04105
441.66921	-0.10422
439.74053	-0.10422
437.81184	0.61257
435.88315	-0.05969
433.95447	0.85450
432.02578	0.32065
430.09709	0.04747
428.16841	0.11606
426.23972	0.25883
424.31104	0.23303
422.38235	0.47596
420.45366	0.47596
418.52498	5.09543
416.59629	1.70361
414.66760	1.43575
412.73892	1.06558
410.81023	0.06841
408.88154	-0.03568
406.95286	0.09759
405.02417	0.30722
403.09548	1.27943
401.16680	-5.51462
399.23811	-5.51462
