4000.04268	0.82620
3998.11402	0.82615
3996.18536	0.82612
3994.25670	0.82611
3992.32804	0.82608
3990.39938	0.82600
3988.47072	0.82594
3986.54206	0.82595
3984.61340	0.82601
3982.68474	0.82597
3980.75607	0.82588
3978.82741	0.82588
3976.89875	0.82594
3974.97009	0.82593
3973.04143	0.82585
3971.11277	0.82580
3969.18411	0.82584
3967.25545	0.82586
3965.32679	0.82576
3963.39813	0.82559
3961.46947	0.82549
3959.54080	0.82548
3957.61214	0.82545
3955.68348	0.82547
3953.75482	0.82544
3951.82616	0.82523
3949.89750	0.82501
3947.96884	0.82502
3946.04018	0.82505
3944.11152	0.82498
3942.18286	0.82505
3940.25420	0.82528
3938.32553	0.82540
3936.39687	0.82534
3934.46821	0.82508
3932.53955	0.82482
3930.61089	0.82487
3928.68223	0.82497
3926.75357	0.82480
3924.82491	0.82455
3922.89625	0.82450
3920.96759	0.82444
3919.03893	0.82424
3917.11026	0.82421
3915.18160	0.82455
3913.25294	0.82491
3911.32428	0.82501
3909.39562	0.82481
3907.46696	0.82414
3905.53830	0.82299
3903.60964	0.82206
3901.68098	0.82195
3899.75232	0.82263
3897.82366	0.82363
3895.89500	0.82414
3893.96633	0.82385
3892.03767	0.82339
3890.10901	0.82339
3888.18035	0.82335
3886.25169	0.82311
3884.32303	0.82308
3882.39437	0.82291
3880.46571	0.82288
3878.53705	0.82336
3876.60839	0.82342
3874.67973	0.82287
3872.75106	0.82210
3870.82240	0.82150
3868.89374	0.82176
3866.96508	0.82216
3865.03642	0.82205
3863.10776	0.82228
3861.17910	0.82294
3859.25044	0.82307
3857.32178	0.82188
3855.39312	0.81909
3853.46446	0.81780
3851.53579	0.82036
3849.60713	0.82276
3847.67847	0.82374
3845.74981	0.82361
3843.82115	0.82269
3841.89249	0.82152
3839.96383	0.82064
3838.03517	0.82081
3836.10651	0.82172
3834.17785	0.82213
3832.24919	0.82217
3830.32052	0.82239
3828.39186	0.82254
3826.46320	0.82248
3824.53454	0.82201
3822.60588	0.82099
3820.67722	0.82063
3818.74856	0.82093
3816.81990	0.82098
3814.89124	0.82161
3812.96258	0.82252
3811.03392	0.82263
3809.10526	0.82182
3807.17659	0.82106
3805.24793	0.82087
3803.31927	0.82028
3801.39061	0.81994
3799.46195	0.82072
3797.53329	0.82144
3795.60463	0.82199
3793.67597	0.82263
3791.74731	0.82297
3789.81865	0.82294
3787.88999	0.82267
3785.96132	0.82235
3784.03266	0.82225
3782.10400	0.82231
3780.17534	0.82232
3778.24668	0.82232
3776.31802	0.82241
3774.38936	0.82243
3772.46070	0.82204
3770.53204	0.82147
3768.60338	0.82132
3766.67472	0.82146
3764.74605	0.82162
3762.81739	0.82153
3760.88873	0.82105
3758.96007	0.82076
3757.03141	0.82078
3755.10275	0.82011
3753.17409	0.81822
3751.24543	0.81658
3749.31677	0.81702
3747.38811	0.81732
3745.45945	0.81663
3743.53078	0.81776
3741.60212	0.82010
3739.67346	0.82096
3737.74480	0.81991
3735.81614	0.81823
3733.88748	0.81802
3731.95882	0.81916
3730.03016	0.82010
3728.10150	0.82019
3726.17284	0.81987
3724.24418	0.81983
3722.31552	0.82006
3720.38685	0.82050
3718.45819	0.82096
3716.52953	0.82090
3714.60087	0.81990
3712.67221	0.81843
3710.74355	0.81826
3708.81489	0.81944
3706.88623	0.82038
3704.95757	0.82046
3703.02891	0.82002
3701.10025	0.82006
3699.17158	0.82069
3697.24292	0.82117
3695.31426	0.82109
3693.38560	0.82039
3691.45694	0.81966
3689.52828	0.81989
3687.59962	0.82074
3685.67096	0.82120
3683.74230	0.82115
3681.81364	0.82059
3679.88498	0.81949
3677.95631	0.81768
3676.02765	0.81638
3674.09899	0.81700
3672.17033	0.81730
3670.24167	0.81718
3668.31301	0.81842
3666.38435	0.81987
3664.45569	0.82061
3662.52703	0.82117
3660.59837	0.82143
3658.66971	0.82053
3656.74104	0.81902
3654.81238	0.81835
3652.88372	0.81781
3650.95506	0.81617
3649.02640	0.81472
3647.09774	0.81547
3645.16908	0.81675
3643.24042	0.81714
3641.31176	0.81683
3639.38310	0.81631
3637.45444	0.81572
3635.52578	0.81496
3633.59711	0.81383
3631.66845	0.81183
3629.73979	0.80954
3627.81113	0.80963
3625.88247	0.81109
3623.95381	0.81159
3622.02515	0.81082
3620.09649	0.80930
3618.16783	0.80847
3616.23917	0.80840
3614.31051	0.80795
3612.38184	0.80721
3610.45318	0.80659
3608.52452	0.80656
3606.59586	0.80742
3604.66720	0.80820
3602.73854	0.80828
3600.80988	0.80811
3598.88122	0.80777
3596.95256	0.80713
3595.02390	0.80693
3593.09524	0.80736
3591.16657	0.80738
3589.23791	0.80707
3587.30925	0.80804
3585.38059	0.80976
3583.45193	0.81043
3581.52327	0.81016
3579.59461	0.80973
3577.66595	0.80961
3575.73729	0.80990
3573.80863	0.81050
3571.87997	0.81101
3569.95130	0.81069
3568.02264	0.80974
3566.09398	0.80995
3564.16532	0.81145
3562.23666	0.81271
3560.30800	0.81311
3558.37934	0.81305
3556.45068	0.81297
3554.52202	0.81304
3552.59336	0.81328
3550.66470	0.81350
3548.73604	0.81389
3546.80737	0.81478
3544.87871	0.81543
3542.95005	0.81500
3541.02139	0.81406
3539.09273	0.81363
3537.16407	0.81368
3535.23541	0.81325
3533.30675	0.81231
3531.37809	0.81156
3529.44943	0.81115
3527.52077	0.81127
3525.59210	0.81197
3523.66344	0.81224
3521.73478	0.81157
3519.80612	0.81087
3517.87746	0.81082
3515.94880	0.81125
3514.02014	0.81147
3512.09148	0.81091
3510.16282	0.81019
3508.23416	0.81018
3506.30550	0.81091
3504.37683	0.81201
3502.44817	0.81267
3500.51951	0.81273
3498.59085	0.81281
3496.66219	0.81286
3494.73353	0.81262
3492.80487	0.81241
3490.87621	0.81252
3488.94755	0.81298
3487.01889	0.81331
3485.09023	0.81311
3483.16156	0.81326
3481.23290	0.81426
3479.30424	0.81478
3477.37558	0.81424
3475.44692	0.81373
3473.51826	0.81416
3471.58960	0.81571
3469.66094	0.81748
3467.73228	0.81788
3465.80362	0.81673
3463.87496	0.81562
3461.94630	0.81558
3460.01763	0.81573
3458.08897	0.81525
3456.16031	0.81476
3454.23165	0.81469
3452.30299	0.81476
3450.37433	0.81487
3448.44567	0.81504
3446.51701	0.81518
3444.58835	0.81524
3442.65969	0.81541
3440.73103	0.81617
3438.80236	0.81778
3436.87370	0.81926
3434.94504	0.81939
3433.01638	0.81873
3431.08772	0.81841
3429.15906	0.81806
3427.23040	0.81716
3425.30174	0.81633
3423.37308	0.81614
3421.44442	0.81637
3419.51576	0.81646
3417.58709	0.81647
3415.65843	0.81703
3413.72977	0.81788
3411.80111	0.81827
3409.87245	0.81810
3407.94379	0.81757
3406.01513	0.81737
3404.08647	0.81865
3402.15781	0.82071
3400.22915	0.82112
3398.30049	0.81960
3396.37182	0.81850
3394.44316	0.81915
3392.51450	0.82012
3390.58584	0.81951
3388.65718	0.81777
3386.72852	0.81657
3384.79986	0.81633
3382.87120	0.81667
3380.94254	0.81719
3379.01388	0.81745
3377.08522	0.81735
3375.15656	0.81722
3373.22789	0.81799
3371.29923	0.81998
3369.37057	0.82150
3367.44191	0.82093
3365.51325	0.81897
3363.58459	0.81763
3361.65593	0.81744
3359.72727	0.81728
3357.79861	0.81672
3355.86995	0.81652
3353.94129	0.81741
3352.01262	0.81880
3350.08396	0.81895
3348.15530	0.81772
3346.22664	0.81708
3344.29798	0.81757
3342.36932	0.81829
3340.44066	0.81900
3338.51200	0.81916
3336.58334	0.81807
3334.65468	0.81663
3332.72602	0.81589
3330.79735	0.81580
3328.86869	0.81640
3326.94003	0.81740
3325.01137	0.81765
3323.08271	0.81684
3321.15405	0.81599
3319.22539	0.81566
3317.29673	0.81563
3315.36807	0.81570
3313.43941	0.81607
3311.51075	0.81738
3309.58208	0.81955
3307.65342	0.82133
3305.72476	0.82131
3303.79610	0.81930
3301.86744	0.81697
3299.93878	0.81620
3298.01012	0.81705
3296.08146	0.81828
3294.15280	0.81890
3292.22414	0.81842
3290.29548	0.81691
3288.36682	0.81545
3286.43815	0.81483
3284.50949	0.81465
3282.58083	0.81459
3280.65217	0.81467
3278.72351	0.81506
3276.79485	0.81593
3274.86619	0.81706
3272.93753	0.81826
3271.00887	0.81860
3269.08021	0.81716
3267.15155	0.81517
3265.22288	0.81415
3263.29422	0.81395
3261.36556	0.81408
3259.43690	0.81455
3257.50824	0.81532
3255.57958	0.81554
3253.65092	0.81495
3251.72226	0.81474
3249.79360	0.81572
3247.86494	0.81682
3245.93628	0.81658
3244.00761	0.81548
3242.07895	0.81487
3240.15029	0.81484
3238.22163	0.81529
3236.29297	0.81673
3234.36431	0.81831
3232.43565	0.81810
3230.50699	0.81651
3228.57833	0.81542
3226.64967	0.81516
3224.72101	0.81524
3222.79234	0.81550
3220.86368	0.81585
3218.93502	0.81606
3217.00636	0.81604
3215.07770	0.81597
3213.14904	0.81590
3211.22038	0.81591
3209.29172	0.81618
3207.36306	0.81648
3205.43440	0.81655
3203.50574	0.81651
3201.57708	0.81648
3199.64841	0.81648
3197.71975	0.81661
3195.79109	0.81689
3193.86243	0.81723
3191.93377	0.81750
3190.00511	0.81766
3188.07645	0.81769
3186.14779	0.81765
3184.21913	0.81772
3182.29047	0.81790
3180.36181	0.81809
3178.43314	0.81825
3176.50448	0.81838
3174.57582	0.81848
3172.64716	0.81856
3170.71850	0.81867
3168.78984	0.81883
3166.86118	0.81894
3164.93252	0.81903
3163.00386	0.81922
3161.07520	0.81948
3159.14654	0.81974
3157.21787	0.82032
3155.28921	0.82160
3153.36055	0.82286
3151.43189	0.82269
3149.50323	0.82139
3147.57457	0.82045
3145.64591	0.82025
3143.71725	0.82066
3141.78859	0.82185
3139.85993	0.82294
3137.93127	0.82268
3136.00260	0.82156
3134.07394	0.82100
3132.14528	0.82141
3130.21662	0.82198
3128.28796	0.82195
3126.35930	0.82177
3124.43064	0.82240
3122.50198	0.82410
3120.57332	0.82599
3118.64466	0.82700
3116.71600	0.82682
3114.78734	0.82559
3112.85867	0.82440
3110.93001	0.82444
3109.00135	0.82482
3107.07269	0.82426
3105.14403	0.82350
3103.21537	0.82365
3101.28671	0.82432
3099.35805	0.82443
3097.42939	0.82389
3095.50073	0.82360
3093.57207	0.82418
3091.64340	0.82523
3089.71474	0.82581
3087.78608	0.82602
3085.85742	0.82655
3083.92876	0.82719
3082.00010	0.82773
3080.07144	0.82816
3078.14278	0.82774
3076.21412	0.82639
3074.28546	0.82520
3072.35680	0.82494
3070.42813	0.82556
3068.49947	0.82643
3066.57081	0.82654
3064.64215	0.82579
3062.71349	0.82502
3060.78483	0.82474
3058.85617	0.82502
3056.92751	0.82553
3054.99885	0.82588
3053.07019	0.82619
3051.14153	0.82632
3049.21286	0.82614
3047.28420	0.82630
3045.35554	0.82705
3043.42688	0.82761
3041.49822	0.82733
3039.56956	0.82643
3037.64090	0.82602
3035.71224	0.82651
3033.78358	0.82672
3031.85492	0.82614
3029.92626	0.82542
3027.99760	0.82511
3026.06893	0.82522
3024.14027	0.82533
3022.21161	0.82536
3020.28295	0.82576
3018.35429	0.82649
3016.42563	0.82734
3014.49697	0.82805
3012.56831	0.82799
3010.63965	0.82686
3008.71099	0.82541
3006.78233	0.82460
3004.85366	0.82448
3002.92500	0.82458
3000.99634	0.82493
2999.06768	0.82553
2997.13902	0.82583
2995.21036	0.82597
2993.28170	0.82622
2991.35304	0.82587
2989.42438	0.82499
2987.49572	0.82454
2985.56706	0.82477
2983.63839	0.82558
2981.70973	0.82651
2979.78107	0.82673
2977.85241	0.82636
2975.92375	0.82611
2973.99509	0.82580
2972.06643	0.82515
2970.13777	0.82456
2968.20911	0.82427
2966.28045	0.82422
2964.35179	0.82431
2962.42313	0.82426
2960.49446	0.82393
2958.56580	0.82362
2956.63714	0.82376
2954.70848	0.82447
2952.77982	0.82506
2950.85116	0.82513
2948.92250	0.82543
2946.99384	0.82614
2945.06518	0.82629
2943.13652	0.82543
2941.20786	0.82416
2939.27919	0.82330
2937.35053	0.82289
2935.42187	0.82261
2933.49321	0.82261
2931.56455	0.82290
2929.63589	0.82265
2927.70723	0.82141
2925.77857	0.81999
2923.84991	0.81896
2921.92125	0.81836
2919.99259	0.81838
2918.06392	0.81905
2916.13526	0.82027
2914.20660	0.82154
2912.27794	0.82217
2910.34928	0.82212
2908.42062	0.82200
2906.49196	0.82216
2904.56330	0.82245
2902.63464	0.82262
2900.70598	0.82278
2898.77732	0.82328
2896.84865	0.82387
2894.91999	0.82390
2892.99133	0.82350
2891.06267	0.82328
2889.13401	0.82332
2887.20535	0.82339
2885.27669	0.82349
2883.34803	0.82362
2881.41937	0.82374
2879.49071	0.82386
2877.56205	0.82429
2875.63339	0.82527
2873.70472	0.82594
2871.77606	0.82544
2869.84740	0.82452
2867.91874	0.82407
2865.99008	0.82387
2864.06142	0.82376
2862.13276	0.82389
2860.20410	0.82383
2858.27544	0.82316
2856.34678	0.82219
2854.41812	0.82125
2852.48945	0.82041
2850.56079	0.82013
2848.63213	0.82066
2846.70347	0.82149
2844.77481	0.82229
2842.84615	0.82334
2840.91749	0.82478
2838.98883	0.82583
2837.06017	0.82585
2835.13151	0.82537
2833.20285	0.82493
2831.27418	0.82457
2829.34552	0.82438
2827.41686	0.82439
2825.48820	0.82449
2823.55954	0.82457
2821.63088	0.82460
2819.70222	0.82458
2817.77356	0.82453
2815.84490	0.82452
2813.91624	0.82466
2811.98758	0.82502
2810.05891	0.82526
2808.13025	0.82505
2806.20159	0.82472
2804.27293	0.82466
2802.34427	0.82494
2800.41561	0.82549
2798.48695	0.82582
2796.55829	0.82559
2794.62963	0.82528
2792.70097	0.82545
2790.77231	0.82586
2788.84365	0.82583
2786.91498	0.82528
2784.98632	0.82480
2783.05766	0.82464
2781.12900	0.82461
2779.20034	0.82479
2777.27168	0.82532
2775.34302	0.82575
2773.41436	0.82563
2771.48570	0.82528
2769.55704	0.82512
2767.62838	0.82505
2765.69971	0.82493
2763.77105	0.82478
2761.84239	0.82472
2759.91373	0.82473
2757.98507	0.82472
2756.05641	0.82467
2754.12775	0.82466
2752.19909	0.82488
2750.27043	0.82524
2748.34177	0.82536
2746.41311	0.82508
2744.48444	0.82470
2742.55578	0.82455
2740.62712	0.82459
2738.69846	0.82467
2736.76980	0.82467
2734.84114	0.82456
2732.91248	0.82447
2730.98382	0.82449
2729.05516	0.82477
2727.12650	0.82517
2725.19784	0.82526
2723.26917	0.82507
2721.34051	0.82481
2719.41185	0.82457
2717.48319	0.82442
2715.55453	0.82437
2713.62587	0.82439
2711.69721	0.82442
2709.76855	0.82444
2707.83989	0.82444
2705.91123	0.82442
2703.98257	0.82436
2702.05391	0.82432
2700.12524	0.82434
2698.19658	0.82437
2696.26792	0.82433
2694.33926	0.82426
2692.41060	0.82423
2690.48194	0.82425
2688.55328	0.82425
2686.62462	0.82421
2684.69596	0.82426
2682.76730	0.82454
2680.83864	0.82492
2678.90997	0.82505
2676.98131	0.82490
2675.05265	0.82472
2673.12399	0.82457
2671.19533	0.82437
2669.26667	0.82421
2667.33801	0.82415
2665.40935	0.82413
2663.48069	0.82411
2661.55203	0.82410
2659.62337	0.82412
2657.69470	0.82416
2655.76604	0.82417
2653.83738	0.82413
2651.90872	0.82407
2649.98006	0.82405
2648.05140	0.82409
2646.12274	0.82417
2644.19408	0.82421
2642.26542	0.82420
2640.33676	0.82421
2638.40810	0.82426
2636.47943	0.82430
2634.55077	0.82431
2632.62211	0.82427
2630.69345	0.82425
2628.76479	0.82428
2626.83613	0.82429
2624.90747	0.82424
2622.97881	0.82417
2621.05015	0.82413
2619.12149	0.82413
2617.19283	0.82415
2615.26417	0.82414
2613.33550	0.82411
2611.40684	0.82406
2609.47818	0.82405
2607.54952	0.82408
2605.62086	0.82411
2603.69220	0.82412
2601.76354	0.82412
2599.83488	0.82414
2597.90622	0.82420
2595.97756	0.82423
2594.04890	0.82418
2592.12023	0.82413
2590.19157	0.82415
2588.26291	0.82418
2586.33425	0.82417
2584.40559	0.82417
2582.47693	0.82418
2580.54827	0.82417
2578.61961	0.82416
2576.69095	0.82417
2574.76229	0.82418
2572.83363	0.82415
2570.90496	0.82413
2568.97630	0.82413
2567.04764	0.82418
2565.11898	0.82423
2563.19032	0.82428
2561.26166	0.82430
2559.33300	0.82427
2557.40434	0.82421
2555.47568	0.82418
2553.54702	0.82420
2551.61836	0.82425
2549.68969	0.82427
2547.76103	0.82430
2545.83237	0.82439
2543.90371	0.82447
2541.97505	0.82448
2540.04639	0.82446
2538.11773	0.82444
2536.18907	0.82444
2534.26041	0.82445
2532.33175	0.82448
2530.40309	0.82453
2528.47443	0.82459
2526.54576	0.82463
2524.61710	0.82464
2522.68844	0.82465
2520.75978	0.82466
2518.83112	0.82465
2516.90246	0.82466
2514.97380	0.82466
2513.04514	0.82463
2511.11648	0.82460
2509.18782	0.82459
2507.25916	0.82458
2505.33049	0.82456
2503.40183	0.82453
2501.47317	0.82452
2499.54451	0.82451
2497.61585	0.82453
2495.68719	0.82457
2493.75853	0.82458
2491.82987	0.82457
2489.90121	0.82460
2487.97255	0.82465
2486.04389	0.82470
2484.11522	0.82475
2482.18656	0.82480
2480.25790	0.82482
2478.32924	0.82483
2476.40058	0.82484
2474.47192	0.82482
2472.54326	0.82476
2470.61460	0.82474
2468.68594	0.82479
2466.75728	0.82483
2464.82862	0.82481
2462.89995	0.82478
2460.97129	0.82479
2459.04263	0.82482
2457.11397	0.82487
2455.18531	0.82489
2453.25665	0.82489
2451.32799	0.82490
2449.39933	0.82493
2447.47067	0.82496
2445.54201	0.82497
2443.61335	0.82498
2441.68469	0.82496
2439.75602	0.82494
2437.82736	0.82493
2435.89870	0.82494
2433.97004	0.82496
2432.04138	0.82499
2430.11272	0.82504
2428.18406	0.82511
2426.25540	0.82513
2424.32674	0.82511
2422.39808	0.82506
2420.46942	0.82503
2418.54075	0.82506
2416.61209	0.82510
2414.68343	0.82514
2412.75477	0.82515
2410.82611	0.82513
2408.89745	0.82510
2406.96879	0.82507
2405.04013	0.82511
2403.11147	0.82517
2401.18281	0.82520
2399.25415	0.82520
2397.32548	0.82520
2395.39682	0.82521
2393.46816	0.82521
2391.53950	0.82521
2389.61084	0.82516
2387.68218	0.82504
2385.75352	0.82478
2383.82486	0.82432
2381.89620	0.82361
2379.96754	0.82256
2378.03888	0.82117
2376.11021	0.81951
2374.18155	0.81768
2372.25289	0.81563
2370.32423	0.81326
2368.39557	0.81075
2366.46691	0.80845
2364.53825	0.80657
2362.60959	0.80530
2360.68093	0.80495
2358.75227	0.80580
2356.82361	0.80781
2354.89495	0.81063
2352.96628	0.81397
2351.03762	0.81695
2349.10896	0.81821
2347.18030	0.81724
2345.25164	0.81498
2343.32298	0.81336
2341.39432	0.81290
2339.46566	0.81298
2337.53700	0.81339
2335.60834	0.81390
2333.67968	0.81420
2331.75101	0.81445
2329.82235	0.81504
2327.89369	0.81584
2325.96503	0.81650
2324.03637	0.81708
2322.10771	0.81778
2320.17905	0.81860
2318.25039	0.81952
2316.32173	0.82044
2314.39307	0.82119
2312.46441	0.82181
2310.53574	0.82237
2308.60708	0.82286
2306.67842	0.82330
2304.74976	0.82371
2302.82110	0.82409
2300.89244	0.82438
2298.96378	0.82457
2297.03512	0.82475
2295.10646	0.82498
2293.17780	0.82518
2291.24914	0.82533
2289.32047	0.82545
2287.39181	0.82558
2285.46315	0.82569
2283.53449	0.82574
2281.60583	0.82572
2279.67717	0.82571
2277.74851	0.82573
2275.81985	0.82576
2273.89119	0.82580
2271.96253	0.82582
2270.03387	0.82579
2268.10521	0.82573
2266.17654	0.82571
2264.24788	0.82576
2262.31922	0.82584
2260.39056	0.82590
2258.46190	0.82594
2256.53324	0.82594
2254.60458	0.82593
2252.67592	0.82596
2250.74726	0.82600
2248.81860	0.82603
2246.88994	0.82605
2244.96127	0.82606
2243.03261	0.82605
2241.10395	0.82603
2239.17529	0.82603
2237.24663	0.82605
2235.31797	0.82604
2233.38931	0.82600
2231.46065	0.82600
2229.53199	0.82601
2227.60333	0.82601
2225.67467	0.82601
2223.74600	0.82600
2221.81734	0.82597
2219.88868	0.82594
2217.96002	0.82590
2216.03136	0.82586
2214.10270	0.82581
2212.17404	0.82578
2210.24538	0.82577
2208.31672	0.82570
2206.38806	0.82561
2204.45940	0.82556
2202.53073	0.82555
2200.60207	0.82555
2198.67341	0.82556
2196.74475	0.82556
2194.81609	0.82557
2192.88743	0.82562
2190.95877	0.82564
2189.03011	0.82558
2187.10145	0.82555
2185.17279	0.82556
2183.24413	0.82555
2181.31547	0.82553
2179.38680	0.82551
2177.45814	0.82549
2175.52948	0.82549
2173.60082	0.82552
2171.67216	0.82557
2169.74350	0.82560
2167.81484	0.82563
2165.88618	0.82565
2163.95752	0.82564
2162.02886	0.82563
2160.10020	0.82563
2158.17153	0.82564
2156.24287	0.82568
2154.31421	0.82577
2152.38555	0.82585
2150.45689	0.82587
2148.52823	0.82583
2146.59957	0.82581
2144.67091	0.82584
2142.74225	0.82586
2140.81359	0.82587
2138.88493	0.82588
2136.95626	0.82588
2135.02760	0.82594
2133.09894	0.82601
2131.17028	0.82600
2129.24162	0.82593
2127.31296	0.82587
2125.38430	0.82585
2123.45564	0.82586
2121.52698	0.82590
2119.59832	0.82593
2117.66966	0.82591
2115.74099	0.82590
2113.81233	0.82593
2111.88367	0.82598
2109.95501	0.82602
2108.02635	0.82607
2106.09769	0.82609
2104.16903	0.82609
2102.24037	0.82610
2100.31171	0.82607
2098.38305	0.82603
2096.45439	0.82603
2094.52573	0.82601
2092.59706	0.82600
2090.66840	0.82601
2088.73974	0.82607
2086.81108	0.82614
2084.88242	0.82616
2082.95376	0.82614
2081.02510	0.82612
2079.09644	0.82613
2077.16778	0.82616
2075.23912	0.82618
2073.31046	0.82620
2071.38179	0.82624
2069.45313	0.82628
2067.52447	0.82626
2065.59581	0.82621
2063.66715	0.82624
2061.73849	0.82630
2059.80983	0.82631
2057.88117	0.82627
2055.95251	0.82625
2054.02385	0.82628
2052.09519	0.82631
2050.16652	0.82632
2048.23786	0.82632
2046.30920	0.82632
2044.38054	0.82632
2042.45188	0.82631
2040.52322	0.82631
2038.59456	0.82632
2036.66590	0.82633
2034.73724	0.82635
2032.80858	0.82638
2030.87992	0.82638
2028.95125	0.82642
2027.02259	0.82646
2025.09393	0.82644
2023.16527	0.82638
2021.23661	0.82635
2019.30795	0.82635
2017.37929	0.82635
2015.45063	0.82638
2013.52197	0.82645
2011.59331	0.82649
2009.66465	0.82651
2007.73599	0.82652
2005.80732	0.82652
2003.87866	0.82650
2001.95000	0.82652
2000.02134	0.82654
1998.09268	0.82657
1996.16402	0.82658
1994.23536	0.82653
1992.30670	0.82649
1990.37804	0.82650
1988.44938	0.82654
1986.52072	0.82659
1984.59205	0.82663
1982.66339	0.82663
1980.73473	0.82662
1978.80607	0.82664
1976.87741	0.82666
1974.94875	0.82665
1973.02009	0.82665
1971.09143	0.82668
1969.16277	0.82671
1967.23411	0.82674
1965.30545	0.82677
1963.37678	0.82679
1961.44812	0.82679
1959.51946	0.82679
1957.59080	0.82677
1955.66214	0.82677
1953.73348	0.82683
1951.80482	0.82688
1949.87616	0.82686
1947.94750	0.82680
1946.01884	0.82679
1944.09018	0.82682
1942.16151	0.82686
1940.23285	0.82690
1938.30419	0.82695
1936.37553	0.82701
1934.44687	0.82701
1932.51821	0.82695
1930.58955	0.82693
1928.66089	0.82696
1926.73223	0.82695
1924.80357	0.82688
1922.87491	0.82684
1920.94625	0.82682
1919.01758	0.82682
1917.08892	0.82688
1915.16026	0.82697
1913.23160	0.82699
1911.30294	0.82697
1909.37428	0.82696
1907.44562	0.82700
1905.51696	0.82705
1903.58830	0.82708
1901.65964	0.82711
1899.73098	0.82714
1897.80231	0.82713
1895.87365	0.82711
1893.94499	0.82708
1892.01633	0.82703
1890.08767	0.82701
1888.15901	0.82707
1886.23035	0.82715
1884.30169	0.82720
1882.37303	0.82722
1880.44437	0.82724
1878.51571	0.82728
1876.58704	0.82732
1874.65838	0.82732
1872.72972	0.82723
1870.80106	0.82705
1868.87240	0.82695
1866.94374	0.82703
1865.01508	0.82717
1863.08642	0.82725
1861.15776	0.82727
1859.22910	0.82729
1857.30044	0.82730
1855.37177	0.82729
1853.44311	0.82727
1851.51445	0.82723
1849.58579	0.82718
1847.65713	0.82709
1845.72847	0.82697
1843.79981	0.82704
1841.87115	0.82730
1839.94249	0.82743
1838.01383	0.82741
1836.08517	0.82740
1834.15651	0.82742
1832.22784	0.82740
1830.29918	0.82733
1828.37052	0.82730
1826.44186	0.82727
1824.51320	0.82731
1822.58454	0.82742
1820.65588	0.82750
1818.72722	0.82754
1816.79856	0.82760
1814.86990	0.82765
1812.94124	0.82766
1811.01257	0.82765
1809.08391	0.82765
1807.15525	0.82767
1805.22659	0.82766
1803.29793	0.82758
1801.36927	0.82751
1799.44061	0.82760
1797.51195	0.82773
1795.58329	0.82775
1793.65463	0.82766
1791.72597	0.82768
1789.79730	0.82784
1787.86864	0.82794
1785.93998	0.82795
1784.01132	0.82796
1782.08266	0.82801
1780.15400	0.82807
1778.22534	0.82814
1776.29668	0.82813
1774.36802	0.82801
1772.43936	0.82791
1770.51070	0.82803
1768.58203	0.82821
1766.65337	0.82833
1764.72471	0.82834
1762.79605	0.82831
1760.86739	0.82837
1758.93873	0.82843
1757.01007	0.82841
1755.08141	0.82834
1753.15275	0.82819
1751.22409	0.82797
1749.29543	0.82787
1747.36677	0.82794
1745.43810	0.82802
1743.50944	0.82801
1741.58078	0.82794
1739.65212	0.82794
1737.72346	0.82797
1735.79480	0.82785
1733.86614	0.82783
1731.93748	0.82821
1730.00882	0.82859
1728.08016	0.82884
1726.15150	0.82897
1724.22283	0.82902
1722.29417	0.82900
1720.36551	0.82886
1718.43685	0.82867
1716.50819	0.82877
1714.57953	0.82905
1712.65087	0.82917
1710.72221	0.82916
1708.79355	0.82916
1706.86489	0.82920
1704.93623	0.82922
1703.00756	0.82902
1701.07890	0.82869
1699.15024	0.82866
1697.22158	0.82882
1695.29292	0.82898
1693.36426	0.82919
1691.43560	0.82925
1689.50694	0.82919
1687.57828	0.82907
1685.64962	0.82891
1683.72096	0.82891
1681.79229	0.82911
1679.86363	0.82925
1677.93497	0.82929
1676.00631	0.82929
1674.07765	0.82930
1672.14899	0.82928
1670.22033	0.82924
1668.29167	0.82927
1666.36301	0.82927
1664.43435	0.82918
1662.50569	0.82912
1660.57703	0.82919
1658.64836	0.82919
1656.71970	0.82893
1654.79104	0.82843
1652.86238	0.82826
1650.93372	0.82865
1649.00506	0.82884
1647.07640	0.82895
1645.14774	0.82912
1643.21908	0.82919
1641.29042	0.82919
1639.36176	0.82916
1637.43309	0.82904
1635.50443	0.82893
1633.57577	0.82903
1631.64711	0.82912
1629.71845	0.82910
1627.78979	0.82908
1625.86113	0.82910
1623.93247	0.82916
1622.00381	0.82926
1620.07515	0.82936
1618.14649	0.82948
1616.21782	0.82963
1614.28916	0.82972
1612.36050	0.82972
1610.43184	0.82964
1608.50318	0.82944
1606.57452	0.82910
1604.64586	0.82862
1602.71720	0.82800
1600.78854	0.82723
1598.85988	0.82634
1596.93122	0.82523
1595.00255	0.82366
1593.07389	0.82145
1591.14523	0.81857
1589.21657	0.81520
1587.28791	0.81181
1585.35925	0.80891
1583.43059	0.80695
1581.50193	0.80624
1579.57327	0.80676
1577.64461	0.80859
1575.71595	0.81183
1573.78729	0.81489
1571.85862	0.81733
1569.92996	0.81997
1568.00130	0.82231
1566.07264	0.82391
1564.14398	0.82508
1562.21532	0.82585
1560.28666	0.82650
1558.35800	0.82739
1556.42934	0.82781
1554.50068	0.82785
1552.57202	0.82782
1550.64335	0.82776
1548.71469	0.82766
1546.78603	0.82752
1544.85737	0.82729
1542.92871	0.82702
1541.00005	0.82697
1539.07139	0.82734
1537.14273	0.82778
1535.21407	0.82823
1533.28541	0.82874
1531.35675	0.82914
1529.42808	0.82950
1527.49942	0.82988
1525.57076	0.83014
1523.64210	0.83039
1521.71344	0.83085
1519.78478	0.83135
1517.85612	0.83170
1515.92746	0.83186
1513.99880	0.83183
1512.07014	0.83181
1510.14148	0.83191
1508.21281	0.83215
1506.28415	0.83229
1504.35549	0.83213
1502.42683	0.83192
1500.49817	0.83179
1498.56951	0.83174
1496.64085	0.83170
1494.71219	0.83158
1492.78353	0.83144
1490.85487	0.83138
1488.92621	0.83142
1486.99755	0.83146
1485.06888	0.83148
1483.14022	0.83152
1481.21156	0.83157
1479.28290	0.83161
1477.35424	0.83164
1475.42558	0.83165
1473.49692	0.83156
1471.56826	0.83134
1469.63960	0.83115
1467.71094	0.83110
1465.78228	0.83118
1463.85361	0.83128
1461.92495	0.83140
1459.99629	0.83161
1458.06763	0.83181
1456.13897	0.83178
1454.21031	0.83165
1452.28165	0.83159
1450.35299	0.83159
1448.42433	0.83160
1446.49567	0.83152
1444.56701	0.83137
1442.63834	0.83126
1440.70968	0.83120
1438.78102	0.83120
1436.85236	0.83121
1434.92370	0.83117
1432.99504	0.83116
1431.06638	0.83120
1429.13772	0.83121
1427.20906	0.83121
1425.28040	0.83121
1423.35174	0.83120
1421.42307	0.83126
1419.49441	0.83139
1417.56575	0.83140
1415.63709	0.83130
1413.70843	0.83128
1411.77977	0.83135
1409.85111	0.83139
1407.92245	0.83136
1405.99379	0.83131
1404.06513	0.83130
1402.13647	0.83135
1400.20781	0.83146
1398.27914	0.83158
1396.35048	0.83163
1394.42182	0.83157
1392.49316	0.83147
1390.56450	0.83146
1388.63584	0.83156
1386.70718	0.83173
1384.77852	0.83182
1382.84986	0.83174
1380.92120	0.83155
1378.99254	0.83142
1377.06387	0.83143
1375.13521	0.83153
1373.20655	0.83153
1371.27789	0.83142
1369.34923	0.83135
1367.42057	0.83136
1365.49191	0.83141
1363.56325	0.83139
1361.63459	0.83125
1359.70593	0.83110
1357.77727	0.83101
1355.84860	0.83100
1353.91994	0.83099
1351.99128	0.83093
1350.06262	0.83086
1348.13396	0.83089
1346.20530	0.83099
1344.27664	0.83107
1342.34798	0.83114
1340.41932	0.83119
1338.49066	0.83120
1336.56200	0.83124
1334.63333	0.83133
1332.70467	0.83140
1330.77601	0.83143
1328.84735	0.83147
1326.91869	0.83155
1324.99003	0.83166
1323.06137	0.83173
1321.13271	0.83171
1319.20405	0.83170
1317.27539	0.83173
1315.34673	0.83176
1313.41807	0.83178
1311.48940	0.83189
1309.56074	0.83203
1307.63208	0.83212
1305.70342	0.83215
1303.77476	0.83217
1301.84610	0.83224
1299.91744	0.83234
1297.98878	0.83238
1296.06012	0.83236
1294.13146	0.83231
1292.20280	0.83222
1290.27413	0.83214
1288.34547	0.83211
1286.41681	0.83211
1284.48815	0.83209
1282.55949	0.83205
1280.63083	0.83200
1278.70217	0.83199
1276.77351	0.83200
1274.84485	0.83201
1272.91619	0.83198
1270.98753	0.83192
1269.05886	0.83185
1267.13020	0.83178
1265.20154	0.83175
1263.27288	0.83178
1261.34422	0.83183
1259.41556	0.83190
1257.48690	0.83200
1255.55824	0.83204
1253.62958	0.83197
1251.70092	0.83186
1249.77226	0.83176
1247.84359	0.83167
1245.91493	0.83157
1243.98627	0.83146
1242.05761	0.83138
1240.12895	0.83134
1238.20029	0.83126
1236.27163	0.83114
1234.34297	0.83103
1232.41431	0.83092
1230.48565	0.83077
1228.55699	0.83063
1226.62833	0.83052
1224.69966	0.83041
1222.77100	0.83028
1220.84234	0.83014
1218.91368	0.82999
1216.98502	0.82985
1215.05636	0.82970
1213.12770	0.82954
1211.19904	0.82935
1209.27038	0.82913
1207.34172	0.82895
1205.41306	0.82884
1203.48439	0.82877
1201.55573	0.82868
1199.62707	0.82859
1197.69841	0.82851
1195.76975	0.82844
1193.84109	0.82835
1191.91243	0.82827
1189.98377	0.82822
1188.05511	0.82816
1186.12645	0.82812
1184.19779	0.82809
1182.26912	0.82802
1180.34046	0.82792
1178.41180	0.82778
1176.48314	0.82756
1174.55448	0.82726
1172.62582	0.82696
1170.69716	0.82679
1168.76850	0.82671
1166.83984	0.82661
1164.91118	0.82642
1162.98252	0.82621
1161.05385	0.82609
1159.12519	0.82603
1157.19653	0.82597
1155.26787	0.82593
1153.33921	0.82585
1151.41055	0.82579
1149.48189	0.82578
1147.55323	0.82574
1145.62457	0.82564
1143.69591	0.82554
1141.76725	0.82554
1139.83859	0.82563
1137.90992	0.82564
1135.98126	0.82556
1134.05260	0.82549
1132.12394	0.82551
1130.19528	0.82556
1128.26662	0.82556
1126.33796	0.82549
1124.40930	0.82537
1122.48064	0.82526
1120.55198	0.82522
1118.62332	0.82520
1116.69465	0.82507
1114.76599	0.82479
1112.83733	0.82452
1110.90867	0.82438
1108.98001	0.82431
1107.05135	0.82419
1105.12269	0.82407
1103.19403	0.82402
1101.26537	0.82394
1099.33671	0.82370
1097.40805	0.82339
1095.47938	0.82315
1093.55072	0.82295
1091.62206	0.82281
1089.69340	0.82279
1087.76474	0.82278
1085.83608	0.82266
1083.90742	0.82245
1081.97876	0.82226
1080.05010	0.82221
1078.12144	0.82222
1076.19278	0.82222
1074.26411	0.82215
1072.33545	0.82205
1070.40679	0.82198
1068.47813	0.82197
1066.54947	0.82201
1064.62081	0.82205
1062.69215	0.82208
1060.76349	0.82212
1058.83483	0.82220
1056.90617	0.82227
1054.97751	0.82235
1053.04885	0.82243
1051.12018	0.82247
1049.19152	0.82249
1047.26286	0.82256
1045.33420	0.82265
1043.40554	0.82268
1041.47688	0.82264
1039.54822	0.82262
1037.61956	0.82261
1035.69090	0.82257
1033.76224	0.82249
1031.83358	0.82242
1029.90491	0.82242
1027.97625	0.82245
1026.04759	0.82238
1024.11893	0.82217
1022.19027	0.82193
1020.26161	0.82172
1018.33295	0.82157
1016.40429	0.82146
1014.47563	0.82141
1012.54697	0.82142
1010.61831	0.82130
1008.68964	0.82100
1006.76098	0.82066
1004.83232	0.82043
1002.90366	0.82029
1000.97500	0.82013
999.04634	0.81990
997.11768	0.81962
995.18902	0.81938
993.26036	0.81916
991.33170	0.81897
989.40304	0.81877
987.47438	0.81851
985.54571	0.81823
983.61705	0.81797
981.68839	0.81768
979.75973	0.81734
977.83107	0.81703
975.90241	0.81682
973.97375	0.81666
972.04509	0.81649
970.11643	0.81629
968.18777	0.81618
966.25911	0.81615
964.33044	0.81609
962.40178	0.81590
960.47312	0.81569
958.54446	0.81558
956.61580	0.81553
954.68714	0.81543
952.75848	0.81523
950.82982	0.81496
948.90116	0.81473
946.97250	0.81459
945.04384	0.81449
943.11517	0.81440
941.18651	0.81426
939.25785	0.81404
937.32919	0.81378
935.40053	0.81365
933.47187	0.81366
931.54321	0.81364
929.61455	0.81352
927.68589	0.81340
925.75723	0.81335
923.82857	0.81332
921.89990	0.81332
919.97124	0.81329
918.04258	0.81320
916.11392	0.81310
914.18526	0.81300
912.25660	0.81285
910.32794	0.81266
908.39928	0.81243
906.47062	0.81218
904.54196	0.81198
902.61330	0.81188
900.68464	0.81181
898.75597	0.81164
896.82731	0.81141
894.89865	0.81119
892.96999	0.81104
891.04133	0.81097
889.11267	0.81096
887.18401	0.81093
885.25535	0.81090
883.32669	0.81088
881.39803	0.81084
879.46937	0.81079
877.54070	0.81067
875.61204	0.81046
873.68338	0.81023
871.75472	0.80999
869.82606	0.80982
867.89740	0.80968
865.96874	0.80949
864.04008	0.80915
862.11142	0.80872
860.18276	0.80833
858.25410	0.80804
856.32543	0.80779
854.39677	0.80753
852.46811	0.80723
850.53945	0.80697
848.61079	0.80679
846.68213	0.80665
844.75347	0.80657
842.82481	0.80649
840.89615	0.80630
838.96749	0.80599
837.03883	0.80568
835.11016	0.80539
833.18150	0.80511
831.25284	0.80474
829.32418	0.80420
827.39552	0.80339
825.46686	0.80227
823.53820	0.80093
821.60954	0.79954
819.68088	0.79819
817.75222	0.79693
815.82356	0.79565
813.89490	0.79423
811.96623	0.79276
810.03757	0.79131
808.10891	0.78979
806.18025	0.78811
804.25159	0.78624
802.32293	0.78409
800.39427	0.78163
798.46561	0.77887
796.53695	0.77592
794.60829	0.77303
792.67963	0.77028
790.75096	0.76755
788.82230	0.76470
786.89364	0.76184
784.96498	0.75904
783.03632	0.75621
781.10766	0.75332
779.17900	0.75050
777.25034	0.74766
775.32168	0.74473
773.39302	0.74181
771.46436	0.73890
769.53569	0.73581
767.60703	0.73246
765.67837	0.72890
763.74971	0.72529
761.82105	0.72175
759.89239	0.71827
757.96373	0.71476
756.03507	0.71126
754.10641	0.70781
752.17775	0.70427
750.24909	0.70054
748.32042	0.69673
746.39176	0.69300
744.46310	0.68941
742.53444	0.68598
740.60578	0.68272
738.67712	0.67945
736.74846	0.67602
734.81980	0.67264
732.89114	0.66973
730.96248	0.66736
729.03382	0.66522
727.10516	0.66306
725.17649	0.66080
723.24783	0.65835
721.31917	0.65568
719.39051	0.65297
717.46185	0.65050
715.53319	0.64846
713.60453	0.64686
711.67587	0.64574
709.74721	0.64502
707.81855	0.64452
705.88989	0.64403
703.96122	0.64367
702.03256	0.64354
700.10390	0.64345
698.17524	0.64332
696.24658	0.64331
694.31792	0.64341
692.38926	0.64355
690.46060	0.64372
688.53194	0.64389
686.60328	0.64403
684.67462	0.64430
682.74595	0.64485
680.81729	0.64566
678.88863	0.64656
676.95997	0.64742
675.03131	0.64836
673.10265	0.64932
671.17399	0.64955
669.24533	0.64919
667.31667	0.65073
665.38801	0.65358
663.45935	0.65545
661.53068	0.65659
659.60202	0.65758
657.67336	0.65857
655.74470	0.65962
653.81604	0.66084
651.88738	0.66238
649.95872	0.66410
648.03006	0.66558
646.10140	0.66661
644.17274	0.66732
642.24408	0.66776
640.31542	0.66804
638.38675	0.66796
636.45809	0.66697
634.52943	0.66540
632.60077	0.66424
630.67211	0.66338
628.74345	0.66205
626.81479	0.66009
624.88613	0.65812
622.95747	0.65645
621.02881	0.65457
619.10015	0.65199
617.17148	0.64946
615.24282	0.64788
613.31416	0.64690
611.38550	0.64618
609.45684	0.64571
607.52818	0.64542
605.59952	0.64533
603.67086	0.64583
601.74220	0.64725
599.81354	0.64880
597.88488	0.64987
595.95621	0.65068
594.02755	0.65161
592.09889	0.65281
590.17023	0.65438
588.24157	0.65584
586.31291	0.65679
584.38425	0.65725
582.45559	0.65755
580.52693	0.65774
578.59827	0.65796
576.66961	0.65863
574.74094	0.65945
572.81228	0.65972
570.88362	0.65953
568.95496	0.65942
567.02630	0.65957
565.09764	0.65986
563.16898	0.66015
561.24032	0.66035
559.31166	0.66046
557.38300	0.66070
555.45434	0.66130
553.52568	0.66206
551.59701	0.66244
549.66835	0.66227
547.73969	0.66202
545.81103	0.66210
543.88237	0.66231
541.95371	0.66253
540.02505	0.66295
538.09639	0.66301
536.16773	0.66236
534.23907	0.66164
532.31041	0.66098
530.38174	0.66020
528.45308	0.65976
526.52442	0.65972
524.59576	0.65961
522.66710	0.65942
520.73844	0.65933
518.80978	0.65890
516.88112	0.65799
514.95246	0.65728
513.02380	0.65734
511.09514	0.65750
509.16647	0.65696
507.23781	0.65638
505.30915	0.65638
503.38049	0.65646
501.45183	0.65646
499.52317	0.65643
497.59451	0.65614
495.66585	0.65573
493.73719	0.65560
491.80853	0.65611
489.87987	0.65702
487.95120	0.65739
486.02254	0.65698
484.09388	0.65621
482.16522	0.65531
480.23656	0.65478
478.30790	0.65486
476.37924	0.65493
474.45058	0.65483
472.52192	0.65479
470.59326	0.65494
468.66460	0.65542
466.73594	0.65580
464.80727	0.65546
462.87861	0.65473
460.94995	0.65446
459.02129	0.65489
457.09263	0.65570
455.16397	0.65619
453.23531	0.65606
451.30665	0.65584
449.37799	0.65600
447.44933	0.65608
445.52067	0.65541
443.59200	0.65441
441.66334	0.65415
439.73468	0.65480
437.80602	0.65559
435.87736	0.65559
433.94870	0.65475
432.02004	0.65420
430.09138	0.65445
428.16272	0.65504
426.23406	0.65576
424.30540	0.65618
422.37673	0.65558
420.44807	0.65426
418.51941	0.65373
416.59075	0.65446
414.66209	0.65540
412.73343	0.65606
410.80477	0.65612
408.87611	0.65506
406.94745	0.65401
405.01879	0.65437
403.09013	0.65537
401.16146	0.65545
399.23280	0.65447
