3996.23848	0.33283
3994.30979	0.33196
3992.38110	0.33306
3990.45242	0.33170
3988.52373	0.32706
3986.59504	0.32743
3984.66636	0.33151
3982.73767	0.33327
3980.80898	0.33678
3978.88030	0.34060
3976.95161	0.33798
3975.02292	0.33264
3973.09424	0.33153
3971.16555	0.33601
3969.23687	0.34249
3967.30818	0.34609
3965.37949	0.34379
3963.45081	0.33736
3961.52212	0.33237
3959.59343	0.33051
3957.66475	0.33066
3955.73606	0.33179
3953.80737	0.33073
3951.87869	0.32745
3949.95000	0.32709
3948.02131	0.32782
3946.09263	0.32459
3944.16394	0.32287
3942.23525	0.32691
3940.30657	0.33186
3938.37788	0.33334
3936.44919	0.33101
3934.52051	0.32867
3932.59182	0.33026
3930.66313	0.33418
3928.73445	0.33610
3926.80576	0.33627
3924.87708	0.33714
3922.94839	0.33800
3921.01970	0.33780
3919.09102	0.33747
3917.16233	0.33887
3915.23364	0.34132
3913.30496	0.34124
3911.37627	0.33836
3909.44758	0.33553
3907.51890	0.33374
3905.59021	0.33279
3903.66152	0.33337
3901.73284	0.33581
3899.80415	0.33743
3897.87546	0.33500
3895.94678	0.33204
3894.01809	0.33313
3892.08940	0.33490
3890.16072	0.33329
3888.23203	0.32996
3886.30334	0.32829
3884.37466	0.32891
3882.44597	0.33120
3880.51729	0.33298
3878.58860	0.32981
3876.65991	0.32551
3874.73123	0.32803
3872.80254	0.33376
3870.87385	0.33526
3868.94517	0.33501
3867.01648	0.33761
3865.08779	0.33995
3863.15911	0.33895
3861.23042	0.33732
3859.30173	0.33514
3857.37305	0.32976
3855.44436	0.32456
3853.51567	0.32402
3851.58699	0.32686
3849.65830	0.33073
3847.72961	0.33393
3845.80093	0.33446
3843.87224	0.33244
3841.94355	0.32949
3840.01487	0.32686
3838.08618	0.32717
3836.15750	0.33188
3834.22881	0.33682
3832.30012	0.33775
3830.37144	0.33628
3828.44275	0.33590
3826.51406	0.33590
3824.58538	0.33451
3822.65669	0.33133
3820.72800	0.32728
3818.79932	0.32693
3816.87063	0.32971
3814.94194	0.33100
3813.01326	0.33161
3811.08457	0.33201
3809.15588	0.33063
3807.22720	0.32969
3805.29851	0.33265
3803.36982	0.33519
3801.44114	0.33159
3799.51245	0.32692
3797.58376	0.32789
3795.65508	0.33209
3793.72639	0.33335
3791.79771	0.33025
3789.86902	0.32682
3787.94033	0.32675
3786.01165	0.32804
3784.08296	0.32721
3782.15427	0.32626
3780.22559	0.32703
3778.29690	0.32845
3776.36821	0.32936
3774.43953	0.32845
3772.51084	0.32731
3770.58215	0.32789
3768.65347	0.32849
3766.72478	0.32700
3764.79609	0.32475
3762.86741	0.32465
3760.93872	0.32555
3759.01003	0.32490
3757.08135	0.32397
3755.15266	0.32314
3753.22397	0.32219
3751.29529	0.32363
3749.36660	0.32630
3747.43792	0.32784
3745.50923	0.32947
3743.58054	0.32869
3741.65186	0.32244
3739.72317	0.31563
3737.79448	0.31414
3735.86580	0.31729
3733.93711	0.32068
3732.00842	0.32153
3730.07974	0.32050
3728.15105	0.31873
3726.22236	0.31575
3724.29368	0.31264
3722.36499	0.31224
3720.43630	0.31583
3718.50762	0.32110
3716.57893	0.32309
3714.65024	0.32180
3712.72156	0.32129
3710.79287	0.32087
3708.86418	0.31889
3706.93550	0.31665
3705.00681	0.31665
3703.07812	0.32022
3701.14944	0.32233
3699.22075	0.32043
3697.29207	0.31931
3695.36338	0.31923
3693.43469	0.31804
3691.50601	0.31721
3689.57732	0.31665
3687.64863	0.31581
3685.71995	0.31625
3683.79126	0.31799
3681.86257	0.32051
3679.93389	0.32254
3678.00520	0.32115
3676.07651	0.31781
3674.14783	0.31497
3672.21914	0.31041
3670.29045	0.30487
3668.36177	0.30401
3666.43308	0.30859
3664.50439	0.31174
3662.57571	0.30946
3660.64702	0.30722
3658.71833	0.30997
3656.78965	0.31474
3654.86096	0.31795
3652.93228	0.31920
3651.00359	0.31811
3649.07490	0.31615
3647.14622	0.31451
3645.21753	0.31292
3643.28884	0.31309
3641.36016	0.31447
3639.43147	0.31404
3637.50278	0.31271
3635.57410	0.31272
3633.64541	0.31242
3631.71672	0.31081
3629.78804	0.31138
3627.85935	0.31550
3625.93066	0.32041
3624.00198	0.32194
3622.07329	0.31754
3620.14460	0.31252
3618.21592	0.31223
3616.28723	0.31251
3614.35854	0.30998
3612.42986	0.30726
3610.50117	0.30724
3608.57249	0.30978
3606.64380	0.31242
3604.71511	0.31410
3602.78643	0.31442
3600.85774	0.31361
3598.92905	0.31210
3597.00037	0.30933
3595.07168	0.30814
3593.14299	0.31065
3591.21431	0.31335
3589.28562	0.31462
3587.35693	0.31470
3585.42825	0.31223
3583.49956	0.31072
3581.57087	0.31378
3579.64219	0.31685
3577.71350	0.31631
3575.78481	0.31378
3573.85613	0.31216
3571.92744	0.31291
3569.99875	0.31185
3568.07007	0.30889
3566.14138	0.31043
3564.21270	0.31454
3562.28401	0.31589
3560.35532	0.31620
3558.42664	0.31613
3556.49795	0.31451
3554.56926	0.31387
3552.64058	0.31361
3550.71189	0.31083
3548.78320	0.30875
3546.85452	0.31243
3544.92583	0.32002
3542.99714	0.32276
3541.06846	0.31585
3539.13977	0.30621
3537.21108	0.30282
3535.28240	0.30499
3533.35371	0.30838
3531.42502	0.31165
3529.49634	0.31429
3527.56765	0.31692
3525.63896	0.31791
3523.71028	0.31537
3521.78159	0.31242
3519.85291	0.31152
3517.92422	0.31244
3515.99553	0.31353
3514.06685	0.31258
3512.13816	0.31159
3510.20947	0.31523
3508.28079	0.32084
3506.35210	0.32208
3504.42341	0.32036
3502.49473	0.31866
3500.56604	0.31770
3498.63735	0.31772
3496.70867	0.31595
3494.77998	0.31413
3492.85129	0.31613
3490.92261	0.31796
3488.99392	0.31557
3487.06523	0.31182
3485.13655	0.31130
3483.20786	0.31353
3481.27917	0.31482
3479.35049	0.31570
3477.42180	0.31762
3475.49312	0.31656
3473.56443	0.31081
3471.63574	0.30773
3469.70706	0.31080
3467.77837	0.31387
3465.84968	0.31304
3463.92100	0.31095
3461.99231	0.31198
3460.06362	0.31582
3458.13494	0.31806
3456.20625	0.31807
3454.27756	0.31734
3452.34888	0.31575
3450.42019	0.31425
3448.49150	0.31368
3446.56282	0.31432
3444.63413	0.31722
3442.70544	0.32144
3440.77676	0.32307
3438.84807	0.31922
3436.91938	0.31489
3434.99070	0.31604
3433.06201	0.31728
3431.13333	0.31445
3429.20464	0.31281
3427.27595	0.31391
3425.34727	0.31465
3423.41858	0.31484
3421.48989	0.31497
3419.56121	0.31593
3417.63252	0.31996
3415.70383	0.32434
3413.77515	0.32540
3411.84646	0.32406
3409.91777	0.32017
3407.98909	0.31434
3406.06040	0.31132
3404.13171	0.31361
3402.20303	0.31746
3400.27434	0.31856
3398.34565	0.31721
3396.41697	0.31666
3394.48828	0.31897
3392.55959	0.32141
3390.63091	0.32093
3388.70222	0.31835
3386.77354	0.31608
3384.84485	0.31848
3382.91616	0.32566
3380.98748	0.32934
3379.05879	0.32664
3377.13010	0.32251
3375.20142	0.31906
3373.27273	0.31654
3371.34404	0.31479
3369.41536	0.31491
3367.48667	0.31834
3365.55798	0.32095
3363.62930	0.32031
3361.70061	0.32028
3359.77192	0.32146
3357.84324	0.32147
3355.91455	0.32092
3353.98586	0.31849
3352.05718	0.31371
3350.12849	0.31422
3348.19980	0.32058
3346.27112	0.32295
3344.34243	0.31978
3342.41375	0.31736
3340.48506	0.31855
3338.55637	0.32069
3336.62769	0.32169
3334.69900	0.32333
3332.77031	0.32307
3330.84163	0.31798
3328.91294	0.31455
3326.98425	0.31774
3325.05557	0.32305
3323.12688	0.32567
3321.19819	0.32419
3319.26951	0.31934
3317.34082	0.31618
3315.41213	0.31787
3313.48345	0.32074
3311.55476	0.32123
3309.62607	0.32049
3307.69739	0.32031
3305.76870	0.32061
3303.84001	0.32145
3301.91133	0.32207
3299.98264	0.32178
3298.05396	0.32137
3296.12527	0.32165
3294.19658	0.32269
3292.26790	0.32294
3290.33921	0.32236
3288.41052	0.32153
3286.48184	0.32051
3284.55315	0.32117
3282.62446	0.32150
3280.69578	0.31948
3278.76709	0.31910
3276.83840	0.32079
3274.90972	0.32031
3272.98103	0.31975
3271.05234	0.32299
3269.12366	0.32493
3267.19497	0.32248
3265.26628	0.32037
3263.33760	0.31978
3261.40891	0.31997
3259.48022	0.32211
3257.55154	0.32415
3255.62285	0.32286
3253.69417	0.32033
3251.76548	0.32057
3249.83679	0.32175
3247.90811	0.32016
3245.97942	0.31747
3244.05073	0.31759
3242.12205	0.32107
3240.19336	0.32429
3238.26467	0.32367
3236.33599	0.32027
3234.40730	0.31819
3232.47861	0.31836
3230.54993	0.31722
3228.62124	0.31645
3226.69255	0.32117
3224.76387	0.32486
3222.83518	0.32232
3220.90649	0.32145
3218.97781	0.32333
3217.04912	0.32377
3215.12043	0.32436
3213.19175	0.32422
3211.26306	0.32223
3209.33437	0.31885
3207.40569	0.31418
3205.47700	0.31173
3203.54832	0.31255
3201.61963	0.31426
3199.69094	0.31666
3197.76226	0.31854
3195.83357	0.31941
3193.90488	0.32096
3191.97620	0.32150
3190.04751	0.32117
3188.11882	0.32239
3186.19014	0.32179
3184.26145	0.31920
3182.33276	0.31919
3180.40408	0.31985
3178.47539	0.31965
3176.54670	0.32184
3174.61802	0.32417
3172.68933	0.32196
3170.76064	0.31869
3168.83196	0.31922
3166.90327	0.32125
3164.97458	0.32179
3163.04590	0.32141
3161.11721	0.32167
3159.18853	0.32385
3157.25984	0.32491
3155.33115	0.32096
3153.40247	0.31631
3151.47378	0.31688
3149.54509	0.32071
3147.61641	0.32236
3145.68772	0.32161
3143.75903	0.32063
3141.83035	0.31802
3139.90166	0.31500
3137.97297	0.31598
3136.04429	0.31950
3134.11560	0.32049
3132.18691	0.31909
3130.25823	0.31810
3128.32954	0.31683
3126.40085	0.31570
3124.47217	0.31743
3122.54348	0.32074
3120.61479	0.32184
3118.68611	0.31857
3116.75742	0.31348
3114.82874	0.31260
3112.90005	0.31565
3110.97136	0.31706
3109.04268	0.31698
3107.11399	0.31778
3105.18530	0.31847
3103.25662	0.31842
3101.32793	0.31780
3099.39924	0.31752
3097.47056	0.31869
3095.54187	0.31951
3093.61318	0.31815
3091.68450	0.31608
3089.75581	0.31591
3087.82712	0.31811
3085.89844	0.31929
3083.96975	0.31786
3082.04106	0.31733
3080.11238	0.31808
3078.18369	0.31831
3076.25500	0.31989
3074.32632	0.32264
3072.39763	0.32295
3070.46895	0.32082
3068.54026	0.31980
3066.61157	0.31901
3064.68289	0.31620
3062.75420	0.31485
3060.82551	0.31647
3058.89683	0.31762
3056.96814	0.31747
3055.03945	0.31720
3053.11077	0.31757
3051.18208	0.31871
3049.25339	0.31886
3047.32471	0.31786
3045.39602	0.31817
3043.46733	0.31890
3041.53865	0.31798
3039.60996	0.31685
3037.68127	0.31637
3035.75259	0.31640
3033.82390	0.31781
3031.89521	0.31972
3029.96653	0.32046
3028.03784	0.31975
3026.10916	0.31892
3024.18047	0.31922
3022.25178	0.31924
3020.32310	0.31723
3018.39441	0.31499
3016.46572	0.31539
3014.53704	0.31748
3012.60835	0.31839
3010.67966	0.31728
3008.75098	0.31500
3006.82229	0.31309
3004.89360	0.31345
3002.96492	0.31664
3001.03623	0.31984
2999.10754	0.31888
2997.17886	0.31385
2995.25017	0.31036
2993.32148	0.31169
2991.39280	0.31454
2989.46411	0.31653
2987.53542	0.31788
2985.60674	0.31911
2983.67805	0.32127
2981.74937	0.32330
2979.82068	0.32340
2977.89199	0.32293
2975.96331	0.32321
2974.03462	0.32132
2972.10593	0.31624
2970.17725	0.31370
2968.24856	0.31592
2966.31987	0.31752
2964.39119	0.31710
2962.46250	0.31868
2960.53381	0.32146
2958.60513	0.32158
2956.67644	0.31985
2954.74775	0.31892
2952.81907	0.31886
2950.89038	0.31915
2948.96169	0.31936
2947.03301	0.31905
2945.10432	0.32013
2943.17563	0.32321
2941.24695	0.32463
2939.31826	0.32210
2937.38958	0.31857
2935.46089	0.31755
2933.53220	0.31808
2931.60352	0.31740
2929.67483	0.31527
2927.74614	0.31407
2925.81746	0.31520
2923.88877	0.31609
2921.96008	0.31477
2920.03140	0.31556
2918.10271	0.32036
2916.17402	0.32321
2914.24534	0.32159
2912.31665	0.31790
2910.38796	0.31580
2908.45928	0.31762
2906.53059	0.31926
2904.60190	0.31816
2902.67322	0.31722
2900.74453	0.31831
2898.81584	0.32054
2896.88716	0.32091
2894.95847	0.31910
2893.02979	0.31882
2891.10110	0.32052
2889.17241	0.32185
2887.24373	0.32226
2885.31504	0.32029
2883.38635	0.31724
2881.45767	0.31899
2879.52898	0.32545
2877.60029	0.32885
2875.67161	0.32539
2873.74292	0.31967
2871.81423	0.31620
2869.88555	0.31552
2867.95686	0.31570
2866.02817	0.31475
2864.09949	0.31490
2862.17080	0.31631
2860.24211	0.31464
2858.31343	0.31169
2856.38474	0.31189
2854.45605	0.31293
2852.52737	0.31376
2850.59868	0.31671
2848.67000	0.31860
2846.74131	0.31780
2844.81262	0.31985
2842.88394	0.32514
2840.95525	0.32743
2839.02656	0.32539
2837.09788	0.32252
2835.16919	0.32007
2833.24050	0.31741
2831.31182	0.31596
2829.38313	0.31702
2827.45444	0.31915
2825.52576	0.32129
2823.59707	0.32269
2821.66838	0.32290
2819.73970	0.32357
2817.81101	0.32431
2815.88232	0.32331
2813.95364	0.32140
2812.02495	0.31999
2810.09626	0.31892
2808.16758	0.31815
2806.23889	0.31807
2804.31021	0.31726
2802.38152	0.31547
2800.45283	0.31519
2798.52415	0.31644
2796.59546	0.31812
2794.66677	0.32102
2792.73809	0.32407
2790.80940	0.32533
2788.88071	0.32521
2786.95203	0.32412
2785.02334	0.32222
2783.09465	0.32128
2781.16597	0.32141
2779.23728	0.31935
2777.30859	0.31479
2775.37991	0.31221
2773.45122	0.31414
2771.52253	0.31766
2769.59385	0.31911
2767.66516	0.31891
2765.73647	0.31843
2763.80779	0.31780
2761.87910	0.31710
2759.95042	0.31701
2758.02173	0.31862
2756.09304	0.32041
2754.16436	0.32006
2752.23567	0.31869
2750.30698	0.31731
2748.37830	0.31669
2746.44961	0.31883
2744.52092	0.32124
2742.59224	0.31981
2740.66355	0.31636
2738.73486	0.31475
2736.80618	0.31613
2734.87749	0.31891
2732.94880	0.32064
2731.02012	0.32061
2729.09143	0.31924
2727.16274	0.31803
2725.23406	0.31777
2723.30537	0.31658
2721.37668	0.31448
2719.44800	0.31366
2717.51931	0.31545
2715.59062	0.31881
2713.66194	0.31946
2711.73325	0.31711
2709.80457	0.31549
2707.87588	0.31617
2705.94719	0.31924
2704.01851	0.32157
2702.08982	0.32082
2700.16113	0.32024
2698.23245	0.32148
2696.30376	0.32221
2694.37507	0.32022
2692.44639	0.31667
2690.51770	0.31438
2688.58901	0.31338
2686.66033	0.31358
2684.73164	0.31581
2682.80295	0.31740
2680.87427	0.31608
2678.94558	0.31459
2677.01689	0.31554
2675.08821	0.31759
2673.15952	0.31793
2671.23083	0.31741
2669.30215	0.31846
2667.37346	0.31937
2665.44478	0.31825
2663.51609	0.31639
2661.58740	0.31598
2659.65872	0.31767
2657.73003	0.31919
2655.80134	0.31898
2653.87266	0.31738
2651.94397	0.31505
2650.01528	0.31368
2648.08660	0.31320
2646.15791	0.31306
2644.22922	0.31521
2642.30054	0.31791
2640.37185	0.31775
2638.44316	0.31687
2636.51448	0.31734
2634.58579	0.31789
2632.65710	0.31835
2630.72842	0.31927
2628.79973	0.32075
2626.87104	0.32268
2624.94236	0.32336
2623.01367	0.32224
2621.08499	0.32076
2619.15630	0.31874
2617.22761	0.31622
2615.29893	0.31424
2613.37024	0.31386
2611.44155	0.31575
2609.51287	0.31753
2607.58418	0.31752
2605.65549	0.31741
2603.72681	0.31701
2601.79812	0.31568
2599.86943	0.31445
2597.94075	0.31395
2596.01206	0.31568
2594.08337	0.31826
2592.15469	0.31836
2590.22600	0.31840
2588.29731	0.32159
2586.36863	0.32492
2584.43994	0.32457
2582.51125	0.32209
2580.58257	0.32101
2578.65388	0.32142
2576.72520	0.32135
2574.79651	0.32091
2572.86782	0.32176
2570.93914	0.32205
2569.01045	0.31994
2567.08176	0.31885
2565.15308	0.31991
2563.22439	0.32017
2561.29570	0.31949
2559.36702	0.31962
2557.43833	0.32018
2555.50964	0.31937
2553.58096	0.31746
2551.65227	0.31724
2549.72358	0.31911
2547.79490	0.32080
2545.86621	0.32050
2543.93752	0.31724
2542.00884	0.31367
2540.08015	0.31329
2538.15146	0.31519
2536.22278	0.31667
2534.29409	0.31642
2532.36541	0.31580
2530.43672	0.31705
2528.50803	0.31894
2526.57935	0.31896
2524.65066	0.31905
2522.72197	0.32259
2520.79329	0.32610
2518.86460	0.32473
2516.93591	0.32104
2515.00723	0.31826
2513.07854	0.31617
2511.14985	0.31500
2509.22117	0.31550
2507.29248	0.31705
2505.36379	0.31787
2503.43511	0.31837
2501.50642	0.31992
2499.57773	0.32036
2497.64905	0.31839
2495.72036	0.31624
2493.79167	0.31630
2491.86299	0.31887
2489.93430	0.32053
2488.00562	0.31940
2486.07693	0.31836
2484.14824	0.31792
2482.21956	0.31639
2480.29087	0.31510
2478.36218	0.31509
2476.43350	0.31503
2474.50481	0.31477
2472.57612	0.31584
2470.64744	0.31736
2468.71875	0.31686
2466.79006	0.31564
2464.86138	0.31622
2462.93269	0.31745
2461.00400	0.31721
2459.07532	0.31633
2457.14663	0.31564
2455.21794	0.31528
2453.28926	0.31728
2451.36057	0.32010
2449.43188	0.32038
2447.50320	0.31929
2445.57451	0.31858
2443.64583	0.31899
2441.71714	0.31981
2439.78845	0.31895
2437.85977	0.31699
2435.93108	0.31536
2434.00239	0.31442
2432.07371	0.31479
2430.14502	0.31521
2428.21633	0.31451
2426.28765	0.31533
2424.35896	0.31811
2422.43027	0.31987
2420.50159	0.31951
2418.57290	0.31771
2416.64421	0.31669
2414.71553	0.31772
2412.78684	0.31790
2410.85815	0.31633
2408.92947	0.31619
2407.00078	0.31729
2405.07209	0.31759
2403.14341	0.31788
2401.21472	0.31855
2399.28604	0.31857
2397.35735	0.31722
2395.42866	0.31585
2393.49998	0.31708
2391.57129	0.31960
2389.64260	0.31918
2387.71392	0.31651
2385.78523	0.31560
2383.85654	0.31658
2381.92786	0.31775
2379.99917	0.31796
2378.07048	0.31678
2376.14180	0.31607
2374.21311	0.31721
2372.28442	0.31863
2370.35574	0.31840
2368.42705	0.31811
2366.49836	0.31909
2364.56968	0.31859
2362.64099	0.31699
2360.71230	0.31704
2358.78362	0.31746
2356.85493	0.31741
2354.92625	0.31812
2352.99756	0.31935
2351.06887	0.32014
2349.14019	0.31999
2347.21150	0.31914
2345.28281	0.31784
2343.35413	0.31662
2341.42544	0.31745
2339.49675	0.32026
2337.56807	0.32227
2335.63938	0.32267
2333.71069	0.32229
2331.78201	0.32181
2329.85332	0.32060
2327.92463	0.31786
2325.99595	0.31611
2324.06726	0.31699
2322.13857	0.31852
2320.20989	0.31967
2318.28120	0.32023
2316.35251	0.31932
2314.42383	0.31667
2312.49514	0.31408
2310.56646	0.31441
2308.63777	0.31598
2306.70908	0.31565
2304.78040	0.31528
2302.85171	0.31575
2300.92302	0.31565
2298.99434	0.31534
2297.06565	0.31575
2295.13696	0.31694
2293.20828	0.31709
2291.27959	0.31579
2289.35090	0.31531
2287.42222	0.31582
2285.49353	0.31645
2283.56484	0.31696
2281.63616	0.31652
2279.70747	0.31563
2277.77878	0.31635
2275.85010	0.31810
2273.92141	0.31828
2271.99272	0.31742
2270.06404	0.31746
2268.13535	0.31781
2266.20667	0.31685
2264.27798	0.31493
2262.34929	0.31475
2260.42061	0.31726
2258.49192	0.31950
2256.56323	0.31928
2254.63455	0.31810
2252.70586	0.31757
2250.77717	0.31756
2248.84849	0.31798
2246.91980	0.31768
2244.99111	0.31555
2243.06243	0.31369
2241.13374	0.31394
2239.20505	0.31491
2237.27637	0.31548
2235.34768	0.31631
2233.41899	0.31681
2231.49031	0.31637
2229.56162	0.31622
2227.63293	0.31637
2225.70425	0.31660
2223.77556	0.31725
2221.84687	0.31680
2219.91819	0.31525
2217.98950	0.31495
2216.06082	0.31531
2214.13213	0.31503
2212.20344	0.31472
2210.27476	0.31499
2208.34607	0.31566
2206.41738	0.31535
2204.48870	0.31467
2202.56001	0.31511
2200.63132	0.31502
2198.70264	0.31467
2196.77395	0.31587
2194.84526	0.31718
2192.91658	0.31729
2190.98789	0.31635
2189.05920	0.31442
2187.13052	0.31296
2185.20183	0.31402
2183.27314	0.31643
2181.34446	0.31713
2179.41577	0.31632
2177.48708	0.31602
2175.55840	0.31596
2173.62971	0.31569
2171.70103	0.31603
2169.77234	0.31658
2167.84365	0.31691
2165.91497	0.31777
2163.98628	0.31891
2162.05759	0.31980
2160.12891	0.31984
2158.20022	0.31834
2156.27153	0.31646
2154.34285	0.31612
2152.41416	0.31778
2150.48547	0.31923
2148.55679	0.31795
2146.62810	0.31604
2144.69941	0.31578
2142.77073	0.31638
2140.84204	0.31819
2138.91335	0.32061
2136.98467	0.32096
2135.05598	0.31917
2133.12729	0.31790
2131.19861	0.31830
2129.26992	0.31909
2127.34124	0.31931
2125.41255	0.31927
2123.48386	0.31911
2121.55518	0.31873
2119.62649	0.31822
2117.69780	0.31728
2115.76912	0.31656
2113.84043	0.31767
2111.91174	0.31961
2109.98306	0.32010
2108.05437	0.31958
2106.12568	0.31890
2104.19700	0.31789
2102.26831	0.31740
2100.33962	0.31801
2098.41094	0.31850
2096.48225	0.31780
2094.55356	0.31645
2092.62488	0.31628
2090.69619	0.31732
2088.76750	0.31775
2086.83882	0.31834
2084.91013	0.31991
2082.98145	0.31969
2081.05276	0.31682
2079.12407	0.31460
2077.19539	0.31466
2075.26670	0.31505
2073.33801	0.31470
2071.40933	0.31524
2069.48064	0.31711
2067.55195	0.31790
2065.62327	0.31684
2063.69458	0.31635
2061.76589	0.31750
2059.83721	0.31857
2057.90852	0.31874
2055.97983	0.31920
2054.05115	0.31969
2052.12246	0.31835
2050.19377	0.31618
2048.26509	0.31608
2046.33640	0.31724
2044.40771	0.31758
2042.47903	0.31798
2040.55034	0.31851
2038.62166	0.31830
2036.69297	0.31838
2034.76428	0.31881
2032.83560	0.31900
2030.90691	0.31970
2028.97822	0.32019
2027.04954	0.31964
2025.12085	0.31974
2023.19216	0.32018
2021.26348	0.31888
2019.33479	0.31690
2017.40610	0.31584
2015.47742	0.31559
2013.54873	0.31527
2011.62004	0.31492
2009.69136	0.31610
2007.76267	0.31776
2005.83398	0.31781
2003.90530	0.31826
2001.97661	0.32029
2000.04792	0.32101
1998.11924	0.31962
1996.19055	0.31846
1994.26187	0.31796
1992.33318	0.31816
1990.40449	0.31973
1988.47581	0.32091
1986.54712	0.31996
1984.61843	0.31831
1982.68975	0.31831
1980.76106	0.32038
1978.83237	0.32188
1976.90369	0.32071
1974.97500	0.31880
1973.04631	0.31768
1971.11763	0.31647
1969.18894	0.31600
1967.26025	0.31718
1965.33157	0.31802
1963.40288	0.31710
1961.47419	0.31608
1959.54551	0.31630
1957.61682	0.31675
1955.68813	0.31746
1953.75945	0.31869
1951.83076	0.31807
1949.90208	0.31551
1947.97339	0.31459
1946.04470	0.31626
1944.11602	0.31775
1942.18733	0.31719
1940.25864	0.31558
1938.32996	0.31535
1936.40127	0.31698
1934.47258	0.31841
1932.54390	0.31873
1930.61521	0.31899
1928.68652	0.31968
1926.75784	0.31998
1924.82915	0.31979
1922.90046	0.31938
1920.97178	0.31860
1919.04309	0.31791
1917.11440	0.31719
1915.18572	0.31632
1913.25703	0.31670
1911.32834	0.31774
1909.39966	0.31717
1907.47097	0.31620
1905.54229	0.31710
1903.61360	0.31849
1901.68491	0.31829
1899.75623	0.31701
1897.82754	0.31737
1895.89885	0.31937
1893.97017	0.31999
1892.04148	0.31942
1890.11279	0.31849
1888.18411	0.31692
1886.25542	0.31693
1884.32673	0.31934
1882.39805	0.32082
1880.46936	0.31987
1878.54067	0.31868
1876.61199	0.31734
1874.68330	0.31516
1872.75461	0.31463
1870.82593	0.31661
1868.89724	0.31777
1866.96855	0.31609
1865.03987	0.31386
1863.11118	0.31393
1861.18250	0.31566
1859.25381	0.31597
1857.32512	0.31479
1855.39644	0.31528
1853.46775	0.31767
1851.53906	0.31943
1849.61038	0.31984
1847.68169	0.31895
1845.75300	0.31728
1843.82432	0.31692
1841.89563	0.31734
1839.96694	0.31620
1838.03826	0.31475
1836.10957	0.31546
1834.18088	0.31714
1832.25220	0.31714
1830.32351	0.31698
1828.39482	0.31796
1826.46614	0.31679
1824.53745	0.31425
1822.60876	0.31437
1820.68008	0.31583
1818.75139	0.31572
1816.82271	0.31462
1814.89402	0.31447
1812.96533	0.31497
1811.03665	0.31398
1809.10796	0.31224
1807.17927	0.31294
1805.25059	0.31565
1803.32190	0.31672
1801.39321	0.31563
1799.46453	0.31515
1797.53584	0.31590
1795.60715	0.31638
1793.67847	0.31642
1791.74978	0.31611
1789.82109	0.31476
1787.89241	0.31409
1785.96372	0.31591
1784.03503	0.31816
1782.10635	0.31906
1780.17766	0.31912
1778.24897	0.31847
1776.32029	0.31746
1774.39160	0.31650
1772.46292	0.31538
1770.53423	0.31458
1768.60554	0.31438
1766.67686	0.31432
1764.74817	0.31500
1762.81948	0.31708
1760.89080	0.31969
1758.96211	0.32040
1757.03342	0.31832
1755.10474	0.31635
1753.17605	0.31616
1751.24736	0.31628
1749.31868	0.31644
1747.38999	0.31705
1745.46130	0.31712
1743.53262	0.31744
1741.60393	0.31890
1739.67524	0.31922
1737.74656	0.31693
1735.81787	0.31384
1733.88918	0.31326
1731.96050	0.31547
1730.03181	0.31650
1728.10312	0.31582
1726.17444	0.31639
1724.24575	0.31765
1722.31707	0.31689
1720.38838	0.31582
1718.45969	0.31698
1716.53101	0.31799
1714.60232	0.31795
1712.67363	0.31876
1710.74495	0.31968
1708.81626	0.31973
1706.88757	0.31961
1704.95889	0.32029
1703.03020	0.32137
1701.10151	0.32075
1699.17283	0.31867
1697.24414	0.31826
1695.31545	0.31941
1693.38677	0.31947
1691.45808	0.31854
1689.52939	0.31813
1687.60071	0.31867
1685.67202	0.32014
1683.74333	0.32217
1681.81465	0.32267
1679.88596	0.31976
1677.95728	0.31661
1676.02859	0.31789
1674.09990	0.32105
1672.17122	0.32093
1670.24253	0.31977
1668.31384	0.32073
1666.38516	0.32118
1664.45647	0.32035
1662.52778	0.32044
1660.59910	0.32080
1658.67041	0.32068
1656.74172	0.32132
1654.81304	0.32135
1652.88435	0.31984
1650.95566	0.31951
1649.02698	0.32030
1647.09829	0.32109
1645.16960	0.32205
1643.24092	0.32171
1641.31223	0.31981
1639.38354	0.31738
1637.45486	0.31488
1635.52617	0.31364
1633.59749	0.31463
1631.66880	0.31688
1629.74011	0.31979
1627.81143	0.32269
1625.88274	0.32367
1623.95405	0.32208
1622.02537	0.31965
1620.09668	0.31828
1618.16799	0.31764
1616.23931	0.31727
1614.31062	0.31776
1612.38193	0.31896
1610.45325	0.32067
1608.52456	0.32153
1606.59587	0.32060
1604.66719	0.31953
1602.73850	0.31837
1600.80981	0.31628
1598.88113	0.31459
1596.95244	0.31505
1595.02375	0.31719
1593.09507	0.31765
1591.16638	0.31611
1589.23770	0.31586
1587.30901	0.31628
1585.38032	0.31562
1583.45164	0.31515
1581.52295	0.31560
1579.59426	0.31665
1577.66558	0.31729
1575.73689	0.31663
1573.80820	0.31566
1571.87952	0.31595
1569.95083	0.31728
1568.02214	0.31802
1566.09346	0.31791
1564.16477	0.31761
1562.23608	0.31641
1560.30740	0.31417
1558.37871	0.31316
1556.45002	0.31388
1554.52134	0.31425
1552.59265	0.31483
1550.66396	0.31710
1548.73528	0.31960
1546.80659	0.32010
1544.87791	0.31927
1542.94922	0.31929
1541.02053	0.31949
1539.09185	0.31873
1537.16316	0.31802
1535.23447	0.31763
1533.30579	0.31681
1531.37710	0.31585
1529.44841	0.31594
1527.51973	0.31633
1525.59104	0.31575
1523.66235	0.31543
1521.73367	0.31624
1519.80498	0.31704
1517.87629	0.31686
1515.94761	0.31603
1514.01892	0.31574
1512.09023	0.31683
1510.16155	0.31841
1508.23286	0.31788
1506.30417	0.31613
1504.37549	0.31667
1502.44680	0.31771
1500.51812	0.31673
1498.58943	0.31539
1496.66074	0.31514
1494.73206	0.31579
1492.80337	0.31650
1490.87468	0.31683
1488.94600	0.31731
1487.01731	0.31742
1485.08862	0.31627
1483.15994	0.31537
1481.23125	0.31697
1479.30256	0.32021
1477.37388	0.32121
1475.44519	0.31876
1473.51650	0.31539
1471.58782	0.31287
1469.65913	0.31192
1467.73044	0.31209
1465.80176	0.31258
1463.87307	0.31418
1461.94438	0.31609
1460.01570	0.31665
1458.08701	0.31709
1456.15833	0.31819
1454.22964	0.31832
1452.30095	0.31788
1450.37227	0.31799
1448.44358	0.31835
1446.51489	0.31934
1444.58621	0.32043
1442.65752	0.32002
1440.72883	0.31835
1438.80015	0.31684
1436.87146	0.31679
1434.94277	0.31810
1433.01409	0.31952
1431.08540	0.32030
1429.15671	0.31983
1427.22803	0.31890
1425.29934	0.31804
1423.37065	0.31581
1421.44197	0.31362
1419.51328	0.31410
1417.58459	0.31606
1415.65591	0.31809
1413.72722	0.32052
1411.79854	0.32150
1409.86985	0.31997
1407.94116	0.31835
1406.01248	0.31751
1404.08379	0.31679
1402.15510	0.31615
1400.22642	0.31606
1398.29773	0.31704
1396.36904	0.31721
1394.44036	0.31604
1392.51167	0.31562
1390.58298	0.31515
1388.65430	0.31333
1386.72561	0.31236
1384.79692	0.31457
1382.86824	0.31829
1380.93955	0.32046
1379.01086	0.32057
1377.08218	0.31940
1375.15349	0.31765
1373.22480	0.31648
1371.29612	0.31585
1369.36743	0.31533
1367.43875	0.31646
1365.51006	0.31867
1363.58137	0.31915
1361.65269	0.31765
1359.72400	0.31548
1357.79531	0.31404
1355.86663	0.31444
1353.93794	0.31578
1352.00925	0.31634
1350.08057	0.31629
1348.15188	0.31627
1346.22319	0.31605
1344.29451	0.31579
1342.36582	0.31517
1340.43713	0.31413
1338.50845	0.31396
1336.57976	0.31441
1334.65107	0.31413
1332.72239	0.31374
1330.79370	0.31516
1328.86501	0.31743
1326.93633	0.31804
1325.00764	0.31730
1323.07896	0.31627
1321.15027	0.31599
1319.22158	0.31589
1317.29290	0.31428
1315.36421	0.31384
1313.43552	0.31494
1311.50684	0.31342
1309.57815	0.31052
1307.64946	0.31001
1305.72078	0.31180
1303.79209	0.31382
1301.86340	0.31430
1299.93472	0.31364
1298.00603	0.31372
1296.07734	0.31442
1294.14866	0.31487
1292.21997	0.31513
1290.29128	0.31382
1288.36260	0.31126
1286.43391	0.31020
1284.50522	0.31057
1282.57654	0.31049
1280.64785	0.30975
1278.71917	0.30957
1276.79048	0.30975
1274.86179	0.31039
1272.93311	0.31215
1271.00442	0.31399
1269.07573	0.31587
1267.14705	0.31760
1265.21836	0.31830
1263.28967	0.31744
1261.36099	0.31570
1259.43230	0.31597
1257.50361	0.31764
1255.57493	0.31771
1253.64624	0.31618
1251.71755	0.31446
1249.78887	0.31378
1247.86018	0.31343
1245.93149	0.31226
1244.00281	0.31123
1242.07412	0.31101
1240.14543	0.31107
1238.21675	0.31126
1236.28806	0.31100
1234.35937	0.30991
1232.43069	0.31060
1230.50200	0.31354
1228.57332	0.31442
1226.64463	0.31271
1224.71594	0.31260
1222.78726	0.31509
1220.85857	0.31667
1218.92988	0.31557
1217.00120	0.31353
1215.07251	0.31094
1213.14382	0.30840
1211.21514	0.30899
1209.28645	0.31290
1207.35776	0.31616
1205.42908	0.31598
1203.50039	0.31359
1201.57170	0.31087
1199.64302	0.30868
1197.71433	0.30817
1195.78564	0.30944
1193.85696	0.31160
1191.92827	0.31322
1189.99958	0.31368
1188.07090	0.31461
1186.14221	0.31590
1184.21353	0.31656
1182.28484	0.31742
1180.35615	0.31746
1178.42747	0.31663
1176.49878	0.31711
1174.57009	0.31757
1172.64141	0.31612
1170.71272	0.31431
1168.78403	0.31408
1166.85535	0.31493
1164.92666	0.31477
1162.99797	0.31383
1161.06929	0.31401
1159.14060	0.31549
1157.21191	0.31697
1155.28323	0.31740
1153.35454	0.31686
1151.42585	0.31572
1149.49717	0.31424
1147.56848	0.31271
1145.63979	0.31130
1143.71111	0.31122
1141.78242	0.31291
1139.85374	0.31430
1137.92505	0.31460
1135.99636	0.31488
1134.06768	0.31539
1132.13899	0.31568
1130.21030	0.31537
1128.28162	0.31436
1126.35293	0.31406
1124.42424	0.31513
1122.49556	0.31465
1120.56687	0.31260
1118.63818	0.31204
1116.70950	0.31243
1114.78081	0.31326
1112.85212	0.31495
1110.92344	0.31622
1108.99475	0.31672
1107.06606	0.31612
1105.13738	0.31353
1103.20869	0.31052
1101.28000	0.31004
1099.35132	0.31290
1097.42263	0.31552
1095.49395	0.31354
1093.56526	0.31057
1091.63657	0.31183
1089.70789	0.31516
1087.77920	0.31766
1085.85051	0.31762
1083.92183	0.31587
1081.99314	0.31507
1080.06445	0.31497
1078.13577	0.31500
1076.20708	0.31428
1074.27839	0.31417
1072.34971	0.31617
1070.42102	0.31633
1068.49233	0.31441
1066.56365	0.31485
1064.63496	0.31625
1062.70627	0.31504
1060.77759	0.31278
1058.84890	0.31187
1056.92021	0.31284
1054.99153	0.31553
1053.06284	0.31837
1051.13416	0.31883
1049.20547	0.31502
1047.27678	0.31106
1045.34810	0.31203
1043.41941	0.31353
1041.49072	0.31169
1039.56204	0.31035
1037.63335	0.31204
1035.70466	0.31401
1033.77598	0.31210
1031.84729	0.30774
1029.91860	0.30787
1027.98992	0.31271
1026.06123	0.31483
1024.13254	0.31244
1022.20386	0.31005
1020.27517	0.30989
1018.34648	0.31088
1016.41780	0.31211
1014.48911	0.31344
1012.56042	0.31466
1010.63174	0.31557
1008.70305	0.31638
1006.77437	0.31698
1004.84568	0.31674
1002.91699	0.31618
1000.98831	0.31466
999.05962	0.31143
997.13093	0.30906
995.20225	0.30827
993.27356	0.30821
991.34487	0.30839
989.41619	0.30718
987.48750	0.30614
985.55881	0.30747
983.63013	0.30834
981.70144	0.30645
979.77275	0.30475
977.84407	0.30604
975.91538	0.30890
973.98669	0.31030
972.05801	0.30787
970.12932	0.30290
968.20063	0.29984
966.27195	0.30036
964.34326	0.30275
962.41458	0.30592
960.48589	0.30953
958.55720	0.31254
956.62852	0.31444
954.69983	0.31479
952.77114	0.31283
950.84246	0.30923
948.91377	0.30508
946.98508	0.30293
945.05640	0.30430
943.12771	0.30594
941.19902	0.30625
939.27034	0.30619
937.34165	0.30559
935.41296	0.30558
933.48428	0.30716
931.55559	0.30933
929.62690	0.31014
927.69822	0.30862
925.76953	0.30685
923.84084	0.30663
921.91216	0.30643
919.98347	0.30452
918.05479	0.30262
916.12610	0.30378
914.19741	0.30721
912.26873	0.30929
910.34004	0.30942
908.41135	0.30937
906.48267	0.30768
904.55398	0.30398
902.62529	0.30431
900.69661	0.30984
898.76792	0.31356
896.83923	0.31388
894.91055	0.31343
892.98186	0.31224
891.05317	0.31024
889.12449	0.30697
887.19580	0.30400
885.26711	0.30320
883.33843	0.30216
881.40974	0.30136
879.48105	0.30370
877.55237	0.30738
875.62368	0.31052
873.69500	0.31175
871.76631	0.30868
869.83762	0.30478
867.90894	0.30422
865.98025	0.30449
864.05156	0.30313
862.12288	0.30015
860.19419	0.29733
858.26550	0.29764
856.33682	0.30088
854.40813	0.30401
852.47944	0.30592
850.55076	0.30729
848.62207	0.30719
846.69338	0.30674
844.76470	0.30810
842.83601	0.30962
840.90732	0.31052
838.97864	0.30972
837.04995	0.30537
835.12126	0.30152
833.19258	0.30185
831.26389	0.30370
829.33521	0.30293
827.40652	0.30129
825.47783	0.30489
823.54915	0.30970
821.62046	0.30809
819.69177	0.30256
817.76309	0.29651
815.83440	0.29346
813.90571	0.29553
811.97703	0.29793
810.04834	0.29805
808.11965	0.29694
806.19097	0.29696
804.26228	0.29857
802.33359	0.29753
800.40491	0.29421
798.47622	0.29201
796.54753	0.29210
794.61885	0.29556
792.69016	0.29937
790.76147	0.29903
788.83279	0.29509
786.90410	0.29146
784.97542	0.29088
783.04673	0.29356
781.11804	0.29871
779.18936	0.30271
777.26067	0.30139
775.33198	0.29567
773.40330	0.28961
771.47461	0.28655
769.54592	0.28698
767.61724	0.28925
765.68855	0.29105
763.75986	0.29094
761.83118	0.29004
759.90249	0.28993
757.97380	0.28970
756.04512	0.28685
754.11643	0.28246
752.18774	0.27945
750.25906	0.27860
748.33037	0.28070
746.40168	0.28230
744.47300	0.27928
742.54431	0.27536
740.61562	0.27397
738.68694	0.27250
736.75825	0.27041
734.82957	0.26984
732.90088	0.26739
730.97219	0.26276
729.04351	0.26116
727.11482	0.26163
725.18613	0.26346
723.25745	0.26703
721.32876	0.26857
719.40007	0.26827
717.47139	0.26997
715.54270	0.27101
713.61401	0.26704
711.68533	0.26428
709.75664	0.26635
707.82795	0.26752
705.89927	0.26831
703.97058	0.27173
702.04189	0.27576
700.11321	0.27959
698.18452	0.28271
696.25583	0.28163
694.32715	0.27719
692.39846	0.27325
690.46978	0.26889
688.54109	0.26458
686.61240	0.26370
684.68372	0.26641
682.75503	0.27253
680.82634	0.27768
678.89766	0.27309
676.96897	0.26545
675.04028	0.26574
673.11160	0.26578
671.18291	0.25789
669.25422	0.25151
667.32554	0.25501
665.39685	0.26122
663.46816	0.26237
661.53948	0.26168
659.61079	0.26200
657.68210	0.26175
655.75342	0.26205
653.82473	0.26707
651.89604	0.27449
649.96736	0.27714
648.03867	0.27442
646.10999	0.26994
644.18130	0.26722
642.25261	0.26905
640.32393	0.27483
638.39524	0.28009
636.46655	0.28200
634.53787	0.28158
632.60918	0.28185
630.68049	0.28461
628.75181	0.28698
626.82312	0.28788
624.89443	0.28592
622.96575	0.27812
621.03706	0.26851
619.10837	0.26588
617.17969	0.27264
615.25100	0.27410
613.32231	0.26142
611.39363	0.24578
609.46494	0.23764
607.53625	0.24600
605.60757	0.26465
603.67888	0.27139
601.75020	0.26900
599.82151	0.26748
597.89282	0.25688
595.96414	0.23769
594.03545	0.22817
592.10676	0.23488
590.17808	0.24636
588.24939	0.25643
586.32070	0.26129
584.39202	0.24965
582.46333	0.23266
580.53464	0.23519
578.60596	0.25497
576.67727	0.27106
574.74858	0.26626
572.81990	0.24580
570.89121	0.23170
568.96252	0.23023
567.03384	0.23626
565.10515	0.23818
563.17646	0.22327
561.24778	0.21523
559.31909	0.23293
557.39041	0.24057
555.46172	0.21690
553.53303	0.19717
551.60435	0.19246
549.67566	0.18152
547.74697	0.16871
545.81829	0.14691
543.88960	0.12007
541.96091	0.12687
540.03223	0.15083
538.10354	0.16065
536.17485	0.17625
534.24617	0.18817
532.31748	0.16497
530.38879	0.16721
528.46011	0.24031
526.53142	0.31091
524.60273	0.34688
522.67405	0.34883
520.74536	0.23248
518.81667	0.13746
516.88799	0.33472
514.95930	0.67184
513.03062	0.68873
511.10193	0.37699
509.17324	0.14900
507.24456	0.01515
505.31587	-0.09174
503.38718	-0.09728
501.45850	-0.40203
499.52981	-2.21874
497.60112	-6.65447
495.67244	-3.39140
493.74375	-1.64275
491.81506	0.29951
489.88638	1.38999
487.95769	1.19429
486.02900	0.89500
484.10032	0.72663
482.17163	0.44102
480.24294	0.04872
478.31426	0.02890
476.38557	0.30001
474.45688	0.95525
472.52820	0.95525
470.59951	-6.65163
468.67083	-6.65163
466.74214	1.70955
464.81345	0.13059
462.88477	-0.18190
460.95608	0.30489
459.02739	1.00770
457.09871	0.63514
455.17002	0.26566
453.24133	0.23859
451.31265	0.23458
449.38396	0.34341
447.45527	0.68352
445.52659	3.27091
443.59790	0.26253
441.66921	0.83246
439.74053	0.83246
437.81184	1.52931
435.88315	3.58753
433.95447	3.95148
432.02578	0.81094
430.09709	0.57383
428.16841	0.32426
426.23972	0.22501
424.31104	0.41542
422.38235	1.39665
420.45366	1.39665
418.52498	2.39524
416.59629	0.69413
414.66760	0.34338
412.73892	-0.04753
410.81023	-0.02084
408.88154	0.04359
406.95286	-0.03502
405.02417	-0.09445
403.09548	0.35653
401.16680	-5.12957
399.23811	-5.12957
