4000.04268	0.81063
3998.11402	0.81061
3996.18536	0.81072
3994.25670	0.81079
3992.32804	0.81076
3990.39938	0.81066
3988.47072	0.81060
3986.54206	0.81067
3984.61340	0.81076
3982.68474	0.81068
3980.75607	0.81053
3978.82741	0.81054
3976.89875	0.81066
3974.97009	0.81068
3973.04143	0.81059
3971.11277	0.81053
3969.18411	0.81050
3967.25545	0.81044
3965.32679	0.81039
3963.39813	0.81036
3961.46947	0.81029
3959.54080	0.81021
3957.61214	0.81021
3955.68348	0.81032
3953.75482	0.81048
3951.82616	0.81062
3949.89750	0.81069
3947.96884	0.81061
3946.04018	0.81058
3944.11152	0.81067
3942.18286	0.81057
3940.25420	0.81029
3938.32553	0.81018
3936.39687	0.81035
3934.46821	0.81066
3932.53955	0.81078
3930.61089	0.81058
3928.68223	0.81032
3926.75357	0.81034
3924.82491	0.81044
3922.89625	0.81042
3920.96759	0.81038
3919.03893	0.81032
3917.11026	0.81011
3915.18160	0.80983
3913.25294	0.80967
3911.32428	0.80966
3909.39562	0.80984
3907.46696	0.81025
3905.53830	0.81065
3903.60964	0.81071
3901.68098	0.81050
3899.75232	0.81016
3897.82366	0.80983
3895.89500	0.80982
3893.96633	0.81016
3892.03767	0.81029
3890.10901	0.81000
3888.18035	0.80999
3886.25169	0.81042
3884.32303	0.81071
3882.39437	0.81068
3880.46571	0.81030
3878.53705	0.80986
3876.60839	0.80995
3874.67973	0.81037
3872.75106	0.81051
3870.82240	0.81023
3868.89374	0.80994
3866.96508	0.81001
3865.03642	0.81021
3863.10776	0.81006
3861.17910	0.80975
3859.25044	0.80974
3857.32178	0.80973
3855.39312	0.80908
3853.46446	0.80854
3851.53579	0.80896
3849.60713	0.80931
3847.67847	0.80958
3845.74981	0.80998
3843.82115	0.81028
3841.89249	0.81044
3839.96383	0.81053
3838.03517	0.81057
3836.10651	0.81048
3834.17785	0.81003
3832.24919	0.80948
3830.32052	0.80928
3828.39186	0.80940
3826.46320	0.80951
3824.53454	0.80966
3822.60588	0.81009
3820.67722	0.81030
3818.74856	0.80992
3816.81990	0.80925
3814.89124	0.80857
3812.96258	0.80820
3811.03392	0.80823
3809.10526	0.80848
3807.17659	0.80868
3805.24793	0.80893
3803.31927	0.80921
3801.39061	0.80910
3799.46195	0.80891
3797.53329	0.80879
3795.60463	0.80840
3793.67597	0.80805
3791.74731	0.80798
3789.81865	0.80801
3787.88999	0.80810
3785.96132	0.80818
3784.03266	0.80813
3782.10400	0.80841
3780.17534	0.80884
3778.24668	0.80848
3776.31802	0.80776
3774.38936	0.80759
3772.46070	0.80795
3770.53204	0.80825
3768.60338	0.80818
3766.67472	0.80798
3764.74605	0.80781
3762.81739	0.80791
3760.88873	0.80832
3758.96007	0.80857
3757.03141	0.80850
3755.10275	0.80839
3753.17409	0.80830
3751.24543	0.80815
3749.31677	0.80807
3747.38811	0.80776
3745.45945	0.80704
3743.53078	0.80733
3741.60212	0.80879
3739.67346	0.81010
3737.74480	0.81077
3735.81614	0.81060
3733.88748	0.80971
3731.95882	0.80879
3730.03016	0.80833
3728.10150	0.80828
3726.17284	0.80837
3724.24418	0.80844
3722.31552	0.80836
3720.38685	0.80804
3718.45819	0.80762
3716.52953	0.80738
3714.60087	0.80747
3712.67221	0.80782
3710.74355	0.80798
3708.81489	0.80769
3706.88623	0.80735
3704.95757	0.80727
3703.02891	0.80728
3701.10025	0.80712
3699.17158	0.80701
3697.24292	0.80717
3695.31426	0.80747
3693.38560	0.80803
3691.45694	0.80904
3689.52828	0.80955
3687.59962	0.80860
3685.67096	0.80742
3683.74230	0.80689
3681.81364	0.80694
3679.88498	0.80725
3677.95631	0.80741
3676.02765	0.80725
3674.09899	0.80695
3672.17033	0.80665
3670.24167	0.80634
3668.31301	0.80598
3666.38435	0.80560
3664.45569	0.80545
3662.52703	0.80584
3660.59837	0.80640
3658.66971	0.80634
3656.74104	0.80558
3654.81238	0.80522
3652.88372	0.80596
3650.95506	0.80694
3649.02640	0.80648
3647.09774	0.80496
3645.16908	0.80378
3643.24042	0.80302
3641.31176	0.80246
3639.38310	0.80197
3637.45444	0.80161
3635.52578	0.80138
3633.59711	0.80108
3631.66845	0.80050
3629.73979	0.79958
3627.81113	0.79885
3625.88247	0.79858
3623.95381	0.79856
3622.02515	0.79862
3620.09649	0.79827
3618.16783	0.79755
3616.23917	0.79707
3614.31051	0.79652
3612.38184	0.79559
3610.45318	0.79486
3608.52452	0.79467
3606.59586	0.79476
3604.66720	0.79488
3602.73854	0.79509
3600.80988	0.79531
3598.88122	0.79514
3596.95256	0.79465
3595.02390	0.79441
3593.09524	0.79443
3591.16657	0.79450
3589.23791	0.79505
3587.30925	0.79623
3585.38059	0.79686
3583.45193	0.79654
3581.52327	0.79591
3579.59461	0.79537
3577.66595	0.79515
3575.73729	0.79526
3573.80863	0.79568
3571.87997	0.79652
3569.95130	0.79751
3568.02264	0.79806
3566.09398	0.79806
3564.16532	0.79816
3562.23666	0.79844
3560.30800	0.79840
3558.37934	0.79804
3556.45068	0.79794
3554.52202	0.79831
3552.59336	0.79876
3550.66470	0.79894
3548.73604	0.79951
3546.80737	0.80073
3544.87871	0.80115
3542.95005	0.80004
3541.02139	0.79862
3539.09273	0.79814
3537.16407	0.79824
3535.23541	0.79770
3533.30675	0.79676
3531.37809	0.79636
3529.44943	0.79639
3527.52077	0.79668
3525.59210	0.79733
3523.66344	0.79744
3521.73478	0.79643
3519.80612	0.79540
3517.87746	0.79518
3515.94880	0.79553
3514.02014	0.79580
3512.09148	0.79547
3510.16282	0.79489
3508.23416	0.79477
3506.30550	0.79552
3504.37683	0.79685
3502.44817	0.79745
3500.51951	0.79715
3498.59085	0.79705
3496.66219	0.79706
3494.73353	0.79675
3492.80487	0.79643
3490.87621	0.79648
3488.94755	0.79694
3487.01889	0.79726
3485.09023	0.79711
3483.16156	0.79732
3481.23290	0.79817
3479.30424	0.79847
3477.37558	0.79787
3475.44692	0.79740
3473.51826	0.79778
3471.58960	0.79925
3469.66094	0.80098
3467.73228	0.80130
3465.80362	0.80007
3463.87496	0.79895
3461.94630	0.79883
3460.01763	0.79886
3458.08897	0.79835
3456.16031	0.79781
3454.23165	0.79765
3452.30299	0.79770
3450.37433	0.79797
3448.44567	0.79839
3446.51701	0.79852
3444.58835	0.79835
3442.65969	0.79828
3440.73103	0.79884
3438.80236	0.80027
3436.87370	0.80166
3434.94504	0.80176
3433.01638	0.80108
3431.08772	0.80071
3429.15906	0.80029
3427.23040	0.79940
3425.30174	0.79866
3423.37308	0.79859
3421.44442	0.79877
3419.51576	0.79857
3417.58709	0.79833
3415.65843	0.79881
3413.72977	0.79969
3411.80111	0.80012
3409.87245	0.79997
3407.94379	0.79939
3406.01513	0.79911
3404.08647	0.80030
3402.15781	0.80230
3400.22915	0.80269
3398.30049	0.80115
3396.37182	0.80004
3394.44316	0.80068
3392.51450	0.80160
3390.58584	0.80091
3388.65718	0.79920
3386.72852	0.79809
3384.79986	0.79778
3382.87120	0.79793
3380.94254	0.79833
3379.01388	0.79860
3377.08522	0.79855
3375.15656	0.79841
3373.22789	0.79908
3371.29923	0.80096
3369.37057	0.80249
3367.44191	0.80207
3365.51325	0.80026
3363.58459	0.79895
3361.65593	0.79868
3359.72727	0.79843
3357.79861	0.79781
3355.86995	0.79760
3353.94129	0.79847
3352.01262	0.79981
3350.08396	0.79982
3348.15530	0.79852
3346.22664	0.79786
3344.29798	0.79828
3342.36932	0.79894
3340.44066	0.79965
3338.51200	0.79981
3336.58334	0.79871
3334.65468	0.79726
3332.72602	0.79661
3330.79735	0.79666
3328.86869	0.79730
3326.94003	0.79818
3325.01137	0.79822
3323.08271	0.79730
3321.15405	0.79651
3319.22539	0.79618
3317.29673	0.79601
3315.36807	0.79594
3313.43941	0.79627
3311.51075	0.79758
3309.58208	0.79970
3307.65342	0.80136
3305.72476	0.80119
3303.79610	0.79915
3301.86744	0.79690
3299.93878	0.79617
3298.01012	0.79697
3296.08146	0.79806
3294.15280	0.79860
3292.22414	0.79814
3290.29548	0.79662
3288.36682	0.79508
3286.43815	0.79434
3284.50949	0.79413
3282.58083	0.79406
3280.65217	0.79406
3278.72351	0.79433
3276.79485	0.79512
3274.86619	0.79625
3272.93753	0.79746
3271.00887	0.79777
3269.08021	0.79632
3267.15155	0.79438
3265.22288	0.79341
3263.29422	0.79322
3261.36556	0.79332
3259.43690	0.79382
3257.50824	0.79471
3255.57958	0.79498
3253.65092	0.79431
3251.72226	0.79400
3249.79360	0.79490
3247.86494	0.79602
3245.93628	0.79593
3244.00761	0.79499
3242.07895	0.79443
3240.15029	0.79443
3238.22163	0.79488
3236.29297	0.79623
3234.36431	0.79773
3232.43565	0.79757
3230.50699	0.79612
3228.57833	0.79513
3226.64967	0.79492
3224.72101	0.79505
3222.79234	0.79539
3220.86368	0.79580
3218.93502	0.79600
3217.00636	0.79600
3215.07770	0.79605
3213.14904	0.79612
3211.22038	0.79620
3209.29172	0.79643
3207.36306	0.79669
3205.43440	0.79681
3203.50574	0.79690
3201.57708	0.79704
3199.64841	0.79722
3197.71975	0.79739
3195.79109	0.79756
3193.86243	0.79780
3191.93377	0.79814
3190.00511	0.79840
3188.07645	0.79850
3186.14779	0.79860
3184.21913	0.79878
3182.29047	0.79898
3180.36181	0.79917
3178.43314	0.79936
3176.50448	0.79953
3174.57582	0.79967
3172.64716	0.79982
3170.71850	0.80002
3168.78984	0.80022
3166.86118	0.80038
3164.93252	0.80059
3163.00386	0.80084
3161.07520	0.80109
3159.14654	0.80140
3157.21787	0.80209
3155.28921	0.80347
3153.36055	0.80481
3151.43189	0.80470
3149.50323	0.80348
3147.57457	0.80265
3145.64591	0.80257
3143.71725	0.80308
3141.78859	0.80433
3139.85993	0.80548
3137.93127	0.80535
3136.00260	0.80443
3134.07394	0.80410
3132.14528	0.80461
3130.21662	0.80517
3128.28796	0.80518
3126.35930	0.80514
3124.43064	0.80591
3122.50198	0.80767
3120.57332	0.80961
3118.64466	0.81067
3116.71600	0.81053
3114.78734	0.80936
3112.85867	0.80821
3110.93001	0.80831
3109.00135	0.80884
3107.07269	0.80851
3105.14403	0.80795
3103.21537	0.80823
3101.28671	0.80895
3099.35805	0.80911
3097.42939	0.80870
3095.50073	0.80854
3093.57207	0.80910
3091.64340	0.81005
3089.71474	0.81066
3087.78608	0.81104
3085.85742	0.81170
3083.92876	0.81236
3082.00010	0.81288
3080.07144	0.81333
3078.14278	0.81300
3076.21412	0.81172
3074.28546	0.81058
3072.35680	0.81036
3070.42813	0.81103
3068.49947	0.81195
3066.57081	0.81219
3064.64215	0.81156
3062.71349	0.81082
3060.78483	0.81053
3058.85617	0.81082
3056.92751	0.81131
3054.99885	0.81154
3053.07019	0.81174
3051.14153	0.81188
3049.21286	0.81174
3047.28420	0.81189
3045.35554	0.81262
3043.42688	0.81321
3041.49822	0.81298
3039.56956	0.81211
3037.64090	0.81178
3035.71224	0.81232
3033.78358	0.81256
3031.85492	0.81199
3029.92626	0.81124
3027.99760	0.81086
3026.06893	0.81093
3024.14027	0.81102
3022.21161	0.81105
3020.28295	0.81147
3018.35429	0.81224
3016.42563	0.81312
3014.49697	0.81380
3012.56831	0.81373
3010.63965	0.81263
3008.71099	0.81122
3006.78233	0.81045
3004.85366	0.81037
3002.92500	0.81049
3000.99634	0.81081
2999.06768	0.81132
2997.13902	0.81159
2995.21036	0.81176
2993.28170	0.81201
2991.35304	0.81165
2989.42438	0.81083
2987.49572	0.81040
2985.56706	0.81063
2983.63839	0.81143
2981.70973	0.81231
2979.78107	0.81246
2977.85241	0.81207
2975.92375	0.81183
2973.99509	0.81156
2972.06643	0.81096
2970.13777	0.81039
2968.20911	0.81011
2966.28045	0.81008
2964.35179	0.81017
2962.42313	0.81008
2960.49446	0.80976
2958.56580	0.80949
2956.63714	0.80963
2954.70848	0.81029
2952.77982	0.81083
2950.85116	0.81088
2948.92250	0.81115
2946.99384	0.81179
2945.06518	0.81190
2943.13652	0.81106
2941.20786	0.80983
2939.27919	0.80897
2937.35053	0.80856
2935.42187	0.80831
2933.49321	0.80834
2931.56455	0.80859
2929.63589	0.80829
2927.70723	0.80708
2925.77857	0.80575
2923.84991	0.80486
2921.92125	0.80446
2919.99259	0.80467
2918.06392	0.80546
2916.13526	0.80665
2914.20660	0.80779
2912.27794	0.80821
2910.34928	0.80800
2908.42062	0.80783
2906.49196	0.80799
2904.56330	0.80829
2902.63464	0.80846
2900.70598	0.80862
2898.77732	0.80908
2896.84865	0.80962
2894.91999	0.80968
2892.99133	0.80934
2891.06267	0.80913
2889.13401	0.80912
2887.20535	0.80916
2885.27669	0.80925
2883.34803	0.80937
2881.41937	0.80947
2879.49071	0.80958
2877.56205	0.80997
2875.63339	0.81086
2873.70472	0.81148
2871.77606	0.81101
2869.84740	0.81015
2867.91874	0.80975
2865.99008	0.80957
2864.06142	0.80943
2862.13276	0.80946
2860.20410	0.80933
2858.27544	0.80872
2856.34678	0.80787
2854.41812	0.80708
2852.48945	0.80648
2850.56079	0.80643
2848.63213	0.80701
2846.70347	0.80769
2844.77481	0.80822
2842.84615	0.80906
2840.91749	0.81035
2838.98883	0.81125
2837.06017	0.81121
2835.13151	0.81077
2833.20285	0.81041
2831.27418	0.81011
2829.34552	0.80994
2827.41686	0.80992
2825.48820	0.81000
2823.55954	0.81008
2821.63088	0.81012
2819.70222	0.81013
2817.77356	0.81011
2815.84490	0.81010
2813.91624	0.81021
2811.98758	0.81051
2810.05891	0.81065
2808.13025	0.81042
2806.20159	0.81016
2804.27293	0.81014
2802.34427	0.81038
2800.41561	0.81090
2798.48695	0.81127
2796.55829	0.81109
2794.62963	0.81077
2792.70097	0.81086
2790.77231	0.81117
2788.84365	0.81113
2786.91498	0.81068
2784.98632	0.81027
2783.05766	0.81013
2781.12900	0.81013
2779.20034	0.81026
2777.27168	0.81067
2775.34302	0.81104
2773.41436	0.81093
2771.48570	0.81063
2769.55704	0.81053
2767.62838	0.81050
2765.69971	0.81039
2763.77105	0.81026
2761.84239	0.81019
2759.91373	0.81015
2757.98507	0.81013
2756.05641	0.81011
2754.12775	0.81013
2752.19909	0.81030
2750.27043	0.81057
2748.34177	0.81065
2746.41311	0.81040
2744.48444	0.81010
2742.55578	0.81000
2740.62712	0.81003
2738.69846	0.81006
2736.76980	0.81001
2734.84114	0.80988
2732.91248	0.80980
2730.98382	0.80987
2729.05516	0.81016
2727.12650	0.81050
2725.19784	0.81055
2723.26917	0.81035
2721.34051	0.81009
2719.41185	0.80986
2717.48319	0.80976
2715.55453	0.80974
2713.62587	0.80973
2711.69721	0.80977
2709.76855	0.80981
2707.83989	0.80978
2705.91123	0.80973
2703.98257	0.80969
2702.05391	0.80966
2700.12524	0.80965
2698.19658	0.80962
2696.26792	0.80957
2694.33926	0.80953
2692.41060	0.80953
2690.48194	0.80954
2688.55328	0.80952
2686.62462	0.80948
2684.69596	0.80953
2682.76730	0.80975
2680.83864	0.80999
2678.90997	0.81005
2676.98131	0.80992
2675.05265	0.80981
2673.12399	0.80972
2671.19533	0.80958
2669.26667	0.80946
2667.33801	0.80939
2665.40935	0.80937
2663.48069	0.80937
2661.55203	0.80937
2659.62337	0.80938
2657.69470	0.80940
2655.76604	0.80941
2653.83738	0.80938
2651.90872	0.80935
2649.98006	0.80935
2648.05140	0.80933
2646.12274	0.80931
2644.19408	0.80929
2642.26542	0.80929
2640.33676	0.80933
2638.40810	0.80939
2636.47943	0.80941
2634.55077	0.80942
2632.62211	0.80938
2630.69345	0.80932
2628.76479	0.80928
2626.83613	0.80926
2624.90747	0.80922
2622.97881	0.80916
2621.05015	0.80911
2619.12149	0.80912
2617.19283	0.80916
2615.26417	0.80916
2613.33550	0.80911
2611.40684	0.80906
2609.47818	0.80903
2607.54952	0.80903
2605.62086	0.80905
2603.69220	0.80909
2601.76354	0.80911
2599.83488	0.80911
2597.90622	0.80913
2595.97756	0.80915
2594.04890	0.80912
2592.12023	0.80909
2590.19157	0.80911
2588.26291	0.80913
2586.33425	0.80913
2584.40559	0.80914
2582.47693	0.80915
2580.54827	0.80910
2578.61961	0.80905
2576.69095	0.80905
2574.76229	0.80904
2572.83363	0.80898
2570.90496	0.80895
2568.97630	0.80899
2567.04764	0.80905
2565.11898	0.80909
2563.19032	0.80911
2561.26166	0.80912
2559.33300	0.80909
2557.40434	0.80903
2555.47568	0.80899
2553.54702	0.80898
2551.61836	0.80899
2549.68969	0.80902
2547.76103	0.80910
2545.83237	0.80919
2543.90371	0.80923
2541.97505	0.80921
2540.04639	0.80921
2538.11773	0.80923
2536.18907	0.80922
2534.26041	0.80922
2532.33175	0.80921
2530.40309	0.80920
2528.47443	0.80925
2526.54576	0.80932
2524.61710	0.80932
2522.68844	0.80930
2520.75978	0.80929
2518.83112	0.80928
2516.90246	0.80929
2514.97380	0.80932
2513.04514	0.80932
2511.11648	0.80928
2509.18782	0.80925
2507.25916	0.80925
2505.33049	0.80923
2503.40183	0.80919
2501.47317	0.80918
2499.54451	0.80921
2497.61585	0.80921
2495.68719	0.80921
2493.75853	0.80921
2491.82987	0.80924
2489.90121	0.80929
2487.97255	0.80931
2486.04389	0.80929
2484.11522	0.80929
2482.18656	0.80931
2480.25790	0.80930
2478.32924	0.80931
2476.40058	0.80934
2474.47192	0.80934
2472.54326	0.80929
2470.61460	0.80926
2468.68594	0.80925
2466.75728	0.80926
2464.82862	0.80928
2462.89995	0.80930
2460.97129	0.80934
2459.04263	0.80939
2457.11397	0.80943
2455.18531	0.80943
2453.25665	0.80940
2451.32799	0.80940
2449.39933	0.80942
2447.47067	0.80944
2445.54201	0.80943
2443.61335	0.80940
2441.68469	0.80937
2439.75602	0.80934
2437.82736	0.80936
2435.89870	0.80940
2433.97004	0.80940
2432.04138	0.80935
2430.11272	0.80933
2428.18406	0.80936
2426.25540	0.80937
2424.32674	0.80936
2422.39808	0.80935
2420.46942	0.80935
2418.54075	0.80938
2416.61209	0.80939
2414.68343	0.80936
2412.75477	0.80935
2410.82611	0.80936
2408.89745	0.80938
2406.96879	0.80941
2405.04013	0.80946
2403.11147	0.80952
2401.18281	0.80955
2399.25415	0.80955
2397.32548	0.80952
2395.39682	0.80950
2393.46816	0.80952
2391.53950	0.80954
2389.61084	0.80955
2387.68218	0.80964
2385.75352	0.80985
2383.82486	0.81025
2381.89620	0.81083
2379.96754	0.81150
2378.03888	0.81212
2376.11021	0.81260
2374.18155	0.81300
2372.25289	0.81343
2370.32423	0.81375
2368.39557	0.81382
2366.46691	0.81378
2364.53825	0.81369
2362.60959	0.81358
2360.68093	0.81373
2358.75227	0.81421
2356.82361	0.81462
2354.89495	0.81479
2352.96628	0.81485
2351.03762	0.81480
2349.10896	0.81475
2347.18030	0.81486
2345.25164	0.81506
2343.32298	0.81510
2341.39432	0.81500
2339.46566	0.81488
2337.53700	0.81482
2335.60834	0.81480
2333.67968	0.81478
2331.75101	0.81467
2329.82235	0.81449
2327.89369	0.81429
2325.96503	0.81406
2324.03637	0.81372
2322.10771	0.81327
2320.17905	0.81283
2318.25039	0.81256
2316.32173	0.81245
2314.39307	0.81244
2312.46441	0.81242
2310.53574	0.81226
2308.60708	0.81201
2306.67842	0.81173
2304.74976	0.81143
2302.82110	0.81119
2300.89244	0.81103
2298.96378	0.81087
2297.03512	0.81069
2295.10646	0.81057
2293.17780	0.81049
2291.24914	0.81038
2289.32047	0.81026
2287.39181	0.81014
2285.46315	0.81004
2283.53449	0.80997
2281.60583	0.80991
2279.67717	0.80990
2277.74851	0.80995
2275.81985	0.81001
2273.89119	0.81005
2271.96253	0.81008
2270.03387	0.81008
2268.10521	0.81003
2266.17654	0.80998
2264.24788	0.80996
2262.31922	0.80997
2260.39056	0.80995
2258.46190	0.80991
2256.53324	0.80987
2254.60458	0.80987
2252.67592	0.80990
2250.74726	0.80988
2248.81860	0.80984
2246.88994	0.80981
2244.96127	0.80980
2243.03261	0.80978
2241.10395	0.80975
2239.17529	0.80968
2237.24663	0.80964
2235.31797	0.80967
2233.38931	0.80970
2231.46065	0.80967
2229.53199	0.80960
2227.60333	0.80953
2225.67467	0.80948
2223.74600	0.80945
2221.81734	0.80942
2219.88868	0.80945
2217.96002	0.80948
2216.03136	0.80941
2214.10270	0.80929
2212.17404	0.80925
2210.24538	0.80923
2208.31672	0.80916
2206.38806	0.80910
2204.45940	0.80910
2202.53073	0.80910
2200.60207	0.80907
2198.67341	0.80904
2196.74475	0.80901
2194.81609	0.80902
2192.88743	0.80903
2190.95877	0.80899
2189.03011	0.80894
2187.10145	0.80894
2185.17279	0.80895
2183.24413	0.80895
2181.31547	0.80896
2179.38680	0.80895
2177.45814	0.80891
2175.52948	0.80893
2173.60082	0.80899
2171.67216	0.80902
2169.74350	0.80900
2167.81484	0.80898
2165.88618	0.80901
2163.95752	0.80905
2162.02886	0.80907
2160.10020	0.80904
2158.17153	0.80898
2156.24287	0.80896
2154.31421	0.80898
2152.38555	0.80904
2150.45689	0.80907
2148.52823	0.80906
2146.59957	0.80906
2144.67091	0.80905
2142.74225	0.80903
2140.81359	0.80904
2138.88493	0.80910
2136.95626	0.80915
2135.02760	0.80917
2133.09894	0.80919
2131.17028	0.80917
2129.24162	0.80912
2127.31296	0.80905
2125.38430	0.80900
2123.45564	0.80898
2121.52698	0.80901
2119.59832	0.80905
2117.66966	0.80907
2115.74099	0.80907
2113.81233	0.80907
2111.88367	0.80904
2109.95501	0.80899
2108.02635	0.80900
2106.09769	0.80906
2104.16903	0.80911
2102.24037	0.80912
2100.31171	0.80908
2098.38305	0.80904
2096.45439	0.80903
2094.52573	0.80905
2092.59706	0.80909
2090.66840	0.80909
2088.73974	0.80908
2086.81108	0.80908
2084.88242	0.80908
2082.95376	0.80903
2081.02510	0.80899
2079.09644	0.80898
2077.16778	0.80899
2075.23912	0.80901
2073.31046	0.80901
2071.38179	0.80902
2069.45313	0.80906
2067.52447	0.80912
2065.59581	0.80914
2063.66715	0.80910
2061.73849	0.80903
2059.80983	0.80898
2057.88117	0.80895
2055.95251	0.80892
2054.02385	0.80893
2052.09519	0.80897
2050.16652	0.80900
2048.23786	0.80900
2046.30920	0.80901
2044.38054	0.80902
2042.45188	0.80901
2040.52322	0.80898
2038.59456	0.80892
2036.66590	0.80885
2034.73724	0.80882
2032.80858	0.80883
2030.87992	0.80885
2028.95125	0.80885
2027.02259	0.80885
2025.09393	0.80884
2023.16527	0.80882
2021.23661	0.80888
2019.30795	0.80896
2017.37929	0.80896
2015.45063	0.80885
2013.52197	0.80879
2011.59331	0.80881
2009.66465	0.80882
2007.73599	0.80877
2005.80732	0.80871
2003.87866	0.80867
2001.95000	0.80867
2000.02134	0.80868
1998.09268	0.80867
1996.16402	0.80874
1994.23536	0.80895
1992.30670	0.80912
1990.37804	0.80905
1988.44938	0.80887
1986.52072	0.80871
1984.59205	0.80858
1982.66339	0.80851
1980.73473	0.80851
1978.80607	0.80854
1976.87741	0.80856
1974.94875	0.80853
1973.02009	0.80850
1971.09143	0.80857
1969.16277	0.80878
1967.23411	0.80887
1965.30545	0.80868
1963.37678	0.80849
1961.44812	0.80848
1959.51946	0.80850
1957.59080	0.80852
1955.66214	0.80852
1953.73348	0.80848
1951.80482	0.80844
1949.87616	0.80843
1947.94750	0.80850
1946.01884	0.80875
1944.09018	0.80912
1942.16151	0.80915
1940.23285	0.80875
1938.30419	0.80841
1936.37553	0.80831
1934.44687	0.80831
1932.51821	0.80830
1930.58955	0.80828
1928.66089	0.80827
1926.73223	0.80841
1924.80357	0.80875
1922.87491	0.80900
1920.94625	0.80903
1919.01758	0.80906
1917.08892	0.80886
1915.16026	0.80847
1913.23160	0.80834
1911.30294	0.80851
1909.37428	0.80861
1907.44562	0.80847
1905.51696	0.80827
1903.58830	0.80817
1901.65964	0.80813
1899.73098	0.80815
1897.80231	0.80829
1895.87365	0.80844
1893.94499	0.80846
1892.01633	0.80855
1890.08767	0.80870
1888.15901	0.80850
1886.23035	0.80818
1884.30169	0.80807
1882.37303	0.80802
1880.44437	0.80796
1878.51571	0.80792
1876.58704	0.80794
1874.65838	0.80802
1872.72972	0.80840
1870.80106	0.80924
1868.87240	0.80988
1866.94374	0.80944
1865.01508	0.80859
1863.08642	0.80812
1861.15776	0.80798
1859.22910	0.80791
1857.30044	0.80784
1855.37177	0.80778
1853.44311	0.80774
1851.51445	0.80780
1849.58579	0.80815
1847.65713	0.80883
1845.72847	0.80956
1843.79981	0.80953
1841.87115	0.80869
1839.94249	0.80812
1838.01383	0.80806
1836.08517	0.80800
1834.15651	0.80802
1832.22784	0.80866
1830.29918	0.80949
1828.37052	0.80954
1826.44186	0.80921
1824.51320	0.80882
1822.58454	0.80823
1820.65588	0.80782
1818.72722	0.80773
1816.79856	0.80776
1814.86990	0.80793
1812.94124	0.80835
1811.01257	0.80863
1809.08391	0.80839
1807.15525	0.80804
1805.22659	0.80803
1803.29793	0.80845
1801.36927	0.80900
1799.44061	0.80913
1797.51195	0.80897
1795.58329	0.80924
1793.65463	0.80995
1791.72597	0.80994
1789.79730	0.80891
1787.86864	0.80824
1785.93998	0.80828
1784.01132	0.80850
1782.08266	0.80873
1780.15400	0.80882
1778.22534	0.80877
1776.29668	0.80918
1774.36802	0.81036
1772.43936	0.81131
1770.51070	0.81074
1768.58203	0.80948
1766.65337	0.80861
1764.72471	0.80857
1762.79605	0.80910
1760.86739	0.80928
1758.93873	0.80905
1757.01007	0.80881
1755.08141	0.80861
1753.15275	0.80905
1751.22409	0.81028
1749.29543	0.81100
1747.36677	0.81054
1745.43810	0.80985
1743.50944	0.80960
1741.58078	0.80971
1739.65212	0.80971
1737.72346	0.80973
1735.79480	0.81053
1733.86614	0.81137
1731.93748	0.81073
1730.00882	0.80956
1728.08016	0.80858
1726.15150	0.80817
1724.22283	0.80833
1722.29417	0.80883
1720.36551	0.81018
1718.43685	0.81235
1716.50819	0.81299
1714.57953	0.81139
1712.65087	0.80974
1710.72221	0.80908
1708.79355	0.80958
1706.86489	0.81076
1704.93623	0.81148
1703.00756	0.81191
1701.07890	0.81296
1699.15024	0.81362
1697.22158	0.81289
1695.29292	0.81110
1693.36426	0.80947
1691.43560	0.80915
1689.50694	0.80970
1687.57828	0.81071
1685.64962	0.81253
1683.72096	0.81317
1681.79229	0.81130
1679.86363	0.80970
1677.93497	0.80942
1676.00631	0.80998
1674.07765	0.81036
1672.14899	0.81078
1670.22033	0.81123
1668.29167	0.81030
1666.36301	0.80905
1664.43435	0.80896
1662.50569	0.80907
1660.57703	0.80835
1658.64836	0.80798
1656.71970	0.80912
1654.79104	0.81182
1652.86238	0.81301
1650.93372	0.81157
1649.00506	0.81156
1647.07640	0.81192
1645.14774	0.81016
1643.21908	0.80828
1641.29042	0.80790
1639.36176	0.80902
1637.43309	0.81105
1635.50443	0.81140
1633.57577	0.80919
1631.64711	0.80774
1629.71845	0.80783
1627.78979	0.80838
1625.86113	0.80881
1623.93247	0.80916
1622.00381	0.80879
1620.07515	0.80852
1618.14649	0.80931
1616.21782	0.80958
1614.28916	0.80837
1612.36050	0.80755
1610.43184	0.80752
1608.50318	0.80742
1606.57452	0.80686
1604.64586	0.80617
1602.71720	0.80543
1600.78854	0.80449
1598.85988	0.80348
1596.93122	0.80245
1595.00255	0.80100
1593.07389	0.79875
1591.14523	0.79578
1589.21657	0.79240
1587.28791	0.78910
1585.35925	0.78644
1583.43059	0.78484
1581.50193	0.78462
1579.57327	0.78611
1577.64461	0.78934
1575.71595	0.79264
1573.78729	0.79443
1571.85862	0.79670
1569.92996	0.79987
1568.00130	0.80170
1566.07264	0.80246
1564.14398	0.80360
1562.21532	0.80579
1560.28666	0.80999
1558.35800	0.81239
1556.42934	0.80976
1554.50068	0.80743
1552.57202	0.80640
1550.64335	0.80600
1548.71469	0.80573
1546.78603	0.80607
1544.85737	0.80770
1542.92871	0.81024
1541.00005	0.81208
1539.07139	0.81020
1537.14273	0.80765
1535.21407	0.80739
1533.28541	0.80785
1531.35675	0.80738
1529.42808	0.80744
1527.49942	0.80864
1525.57076	0.80998
1523.64210	0.81144
1521.71344	0.81276
1519.78478	0.81284
1517.85612	0.81227
1515.92746	0.81118
1513.99880	0.80999
1512.07014	0.81004
1510.14148	0.81188
1508.21281	0.81475
1506.28415	0.81424
1504.35549	0.81048
1502.42683	0.80853
1500.49817	0.80865
1498.56951	0.80949
1496.64085	0.80924
1494.71219	0.80809
1492.78353	0.80800
1490.85487	0.80919
1488.92621	0.80962
1486.99755	0.80824
1485.06888	0.80679
1483.14022	0.80625
1481.21156	0.80632
1479.28290	0.80668
1477.35424	0.80765
1475.42558	0.80914
1473.49692	0.80995
1471.56826	0.80860
1469.63960	0.80663
1467.71094	0.80611
1465.78228	0.80666
1463.85361	0.80669
1461.92495	0.80670
1459.99629	0.80821
1458.06763	0.81032
1456.13897	0.80949
1454.21031	0.80720
1452.28165	0.80607
1450.35299	0.80598
1448.42433	0.80610
1446.49567	0.80562
1444.56701	0.80486
1442.63834	0.80449
1440.70968	0.80467
1438.78102	0.80553
1436.85236	0.80631
1434.92370	0.80583
1432.99504	0.80524
1431.06638	0.80526
1429.13772	0.80510
1427.20906	0.80476
1425.28040	0.80488
1423.35174	0.80524
1421.42307	0.80585
1419.49441	0.80661
1417.56575	0.80610
1415.63709	0.80482
1413.70843	0.80413
1411.77977	0.80399
1409.85111	0.80401
1407.92245	0.80425
1405.99379	0.80460
1404.06513	0.80455
1402.13647	0.80446
1400.20781	0.80496
1398.27914	0.80560
1396.35048	0.80582
1394.42182	0.80534
1392.49316	0.80447
1390.56450	0.80418
1388.63584	0.80469
1386.70718	0.80502
1384.77852	0.80461
1382.84986	0.80403
1380.92120	0.80368
1378.99254	0.80363
1377.06387	0.80402
1375.13521	0.80448
1373.20655	0.80420
1371.27789	0.80347
1369.34923	0.80306
1367.42057	0.80296
1365.49191	0.80325
1363.56325	0.80374
1361.63459	0.80355
1359.70593	0.80277
1357.77727	0.80223
1355.84860	0.80205
1353.91994	0.80194
1351.99128	0.80184
1350.06262	0.80179
1348.13396	0.80174
1346.20530	0.80169
1344.27664	0.80179
1342.34798	0.80221
1340.41932	0.80272
1338.49066	0.80270
1336.56200	0.80219
1334.63333	0.80178
1332.70467	0.80167
1330.77601	0.80171
1328.84735	0.80172
1326.91869	0.80169
1324.99003	0.80169
1323.06137	0.80178
1321.13271	0.80194
1319.20405	0.80203
1317.27539	0.80197
1315.34673	0.80187
1313.41807	0.80183
1311.48940	0.80178
1309.56074	0.80176
1307.63208	0.80178
1305.70342	0.80177
1303.77476	0.80175
1301.84610	0.80178
1299.91744	0.80184
1297.98878	0.80186
1296.06012	0.80180
1294.13146	0.80167
1292.20280	0.80154
1290.27413	0.80149
1288.34547	0.80149
1286.41681	0.80142
1284.48815	0.80128
1282.55949	0.80113
1280.63083	0.80099
1278.70217	0.80085
1276.77351	0.80076
1274.84485	0.80068
1272.91619	0.80060
1270.98753	0.80051
1269.05886	0.80042
1267.13020	0.80031
1265.20154	0.80022
1263.27288	0.80020
1261.34422	0.80018
1259.41556	0.80013
1257.48690	0.80015
1255.55824	0.80019
1253.62958	0.80012
1251.70092	0.79996
1249.77226	0.79979
1247.84359	0.79959
1245.91493	0.79937
1243.98627	0.79918
1242.05761	0.79901
1240.12895	0.79887
1238.20029	0.79870
1236.27163	0.79847
1234.34297	0.79823
1232.41431	0.79803
1230.48565	0.79779
1228.55699	0.79752
1226.62833	0.79726
1224.69966	0.79701
1222.77100	0.79675
1220.84234	0.79653
1218.91368	0.79628
1216.98502	0.79596
1215.05636	0.79560
1213.12770	0.79525
1211.19904	0.79492
1209.27038	0.79454
1207.34172	0.79415
1205.41306	0.79382
1203.48439	0.79356
1201.55573	0.79333
1199.62707	0.79308
1197.69841	0.79277
1195.76975	0.79245
1193.84109	0.79221
1191.91243	0.79207
1189.98377	0.79192
1188.05511	0.79172
1186.12645	0.79149
1184.19779	0.79127
1182.26912	0.79104
1180.34046	0.79071
1178.41180	0.79026
1176.48314	0.78974
1174.55448	0.78923
1172.62582	0.78877
1170.69716	0.78837
1168.76850	0.78805
1166.83984	0.78781
1164.91118	0.78757
1162.98252	0.78733
1161.05385	0.78713
1159.12519	0.78693
1157.19653	0.78668
1155.26787	0.78644
1153.33921	0.78624
1151.41055	0.78604
1149.48189	0.78582
1147.55323	0.78555
1145.62457	0.78525
1143.69591	0.78493
1141.76725	0.78465
1139.83859	0.78444
1137.90992	0.78423
1135.98126	0.78400
1134.05260	0.78379
1132.12394	0.78357
1130.19528	0.78332
1128.26662	0.78304
1126.33796	0.78272
1124.40930	0.78241
1122.48064	0.78215
1120.55198	0.78194
1118.62332	0.78165
1116.69465	0.78129
1114.76599	0.78094
1112.83733	0.78062
1110.90867	0.78032
1108.98001	0.78003
1107.05135	0.77970
1105.12269	0.77939
1103.19403	0.77919
1101.26537	0.77898
1099.33671	0.77866
1097.40805	0.77827
1095.47938	0.77789
1093.55072	0.77753
1091.62206	0.77731
1089.69340	0.77722
1087.76474	0.77710
1085.83608	0.77687
1083.90742	0.77663
1081.97876	0.77644
1080.05010	0.77632
1078.12144	0.77628
1076.19278	0.77625
1074.26411	0.77616
1072.33545	0.77606
1070.40679	0.77600
1068.47813	0.77598
1066.54947	0.77601
1064.62081	0.77609
1062.69215	0.77621
1060.76349	0.77637
1058.83483	0.77653
1056.90617	0.77671
1054.97751	0.77686
1053.04885	0.77702
1051.12018	0.77722
1049.19152	0.77741
1047.26286	0.77752
1045.33420	0.77758
1043.40554	0.77771
1041.47688	0.77792
1039.54822	0.77812
1037.61956	0.77821
1035.69090	0.77828
1033.76224	0.77835
1031.83358	0.77838
1029.90491	0.77841
1027.97625	0.77842
1026.04759	0.77839
1024.11893	0.77828
1022.19027	0.77813
1020.26161	0.77799
1018.33295	0.77787
1016.40429	0.77776
1014.47563	0.77773
1012.54697	0.77779
1010.61831	0.77775
1008.68964	0.77758
1006.76098	0.77738
1004.83232	0.77721
1002.90366	0.77701
1000.97500	0.77677
999.04634	0.77651
997.11768	0.77627
995.18902	0.77605
993.26036	0.77585
991.33170	0.77559
989.40304	0.77528
987.47438	0.77499
985.54571	0.77469
983.61705	0.77431
981.68839	0.77388
979.75973	0.77348
977.83107	0.77317
975.90241	0.77290
973.97375	0.77259
972.04509	0.77230
970.11643	0.77205
968.18777	0.77182
966.25911	0.77160
964.33044	0.77141
962.40178	0.77128
960.47312	0.77113
958.54446	0.77094
956.61580	0.77069
954.68714	0.77040
952.75848	0.77018
950.82982	0.77002
948.90116	0.76980
946.97250	0.76951
945.04384	0.76925
943.11517	0.76904
941.18651	0.76883
939.25785	0.76862
937.32919	0.76840
935.40053	0.76819
933.47187	0.76800
931.54321	0.76781
929.61455	0.76768
927.68589	0.76764
925.75723	0.76758
923.82857	0.76750
921.89990	0.76745
919.97124	0.76736
918.04258	0.76718
916.11392	0.76693
914.18526	0.76667
912.25660	0.76648
910.32794	0.76636
908.39928	0.76623
906.47062	0.76603
904.54196	0.76577
902.61330	0.76550
900.68464	0.76527
898.75597	0.76503
896.82731	0.76481
894.89865	0.76459
892.96999	0.76437
891.04133	0.76416
889.11267	0.76394
887.18401	0.76376
885.25535	0.76364
883.32669	0.76353
881.39803	0.76340
879.46937	0.76321
877.54070	0.76294
875.61204	0.76258
873.68338	0.76217
871.75472	0.76175
869.82606	0.76138
867.89740	0.76106
865.96874	0.76070
864.04008	0.76025
862.11142	0.75974
860.18276	0.75924
858.25410	0.75879
856.32543	0.75831
854.39677	0.75776
852.46811	0.75727
850.53945	0.75690
848.61079	0.75660
846.68213	0.75622
844.75347	0.75575
842.82481	0.75535
840.89615	0.75513
838.96749	0.75495
837.03883	0.75458
835.11016	0.75401
833.18150	0.75327
831.25284	0.75250
829.32418	0.75177
827.39552	0.75091
825.46686	0.74977
823.53820	0.74837
821.60954	0.74684
819.68088	0.74530
817.75222	0.74380
815.82356	0.74232
813.89490	0.74075
811.96623	0.73909
810.03757	0.73744
808.10891	0.73582
806.18025	0.73406
804.25159	0.73203
802.32293	0.72968
800.39427	0.72706
798.46561	0.72426
796.53695	0.72138
794.60829	0.71853
792.67963	0.71572
790.75096	0.71285
788.82230	0.70988
786.89364	0.70695
784.96498	0.70412
783.03632	0.70122
781.10766	0.69828
779.17900	0.69539
777.25034	0.69242
775.32168	0.68930
773.39302	0.68622
771.46436	0.68326
769.53569	0.68032
767.60703	0.67719
765.67837	0.67384
763.74971	0.67042
761.82105	0.66709
759.89239	0.66392
757.96373	0.66068
756.03507	0.65722
754.10641	0.65368
752.17775	0.65018
750.24909	0.64664
748.32042	0.64299
746.39176	0.63930
744.46310	0.63562
742.53444	0.63204
740.60578	0.62870
738.67712	0.62552
736.74846	0.62226
734.81980	0.61898
732.89114	0.61600
730.96248	0.61336
729.03382	0.61091
727.10516	0.60863
725.17649	0.60646
723.24783	0.60416
721.31917	0.60149
719.39051	0.59865
717.46185	0.59611
715.53319	0.59400
713.60453	0.59230
711.67587	0.59101
709.74721	0.59010
707.81855	0.58952
705.88989	0.58910
703.96122	0.58873
702.03256	0.58832
700.10390	0.58796
698.17524	0.58788
696.24658	0.58801
694.31792	0.58816
692.38926	0.58830
690.46060	0.58840
688.53194	0.58854
686.60328	0.58886
684.67462	0.58938
682.74595	0.59001
680.81729	0.59075
678.88863	0.59162
676.95997	0.59253
675.03131	0.59333
673.10265	0.59404
671.17399	0.59508
669.24533	0.59684
667.31667	0.59817
665.38801	0.59832
663.45935	0.59876
661.53068	0.59988
659.60202	0.60130
657.67336	0.60277
655.74470	0.60422
653.81604	0.60554
651.88738	0.60680
649.95872	0.60831
648.03006	0.60995
646.10140	0.61118
644.17274	0.61187
642.24408	0.61231
640.31542	0.61288
638.38675	0.61346
636.45809	0.61348
634.52943	0.61295
632.60077	0.61251
630.67211	0.61217
628.74345	0.61177
626.81479	0.61149
624.88613	0.61139
622.95747	0.61137
621.02881	0.61137
619.10015	0.61118
617.17148	0.61087
615.24282	0.61082
613.31416	0.61135
611.38550	0.61259
609.45684	0.61425
607.52818	0.61553
605.59952	0.61633
603.67086	0.61752
601.74220	0.61958
599.81354	0.62170
597.88488	0.62343
595.95621	0.62472
594.02755	0.62576
592.09889	0.62693
590.17023	0.62831
588.24157	0.62948
586.31291	0.63014
584.38425	0.63043
582.45559	0.63099
580.52693	0.63204
578.59827	0.63301
576.66961	0.63343
574.74094	0.63340
572.81228	0.63296
570.88362	0.63225
568.95496	0.63185
567.02630	0.63220
565.09764	0.63310
563.16898	0.63359
561.24032	0.63345
559.31166	0.63334
557.38300	0.63364
555.45434	0.63440
553.52568	0.63505
551.59701	0.63498
549.66835	0.63455
547.73969	0.63426
545.81103	0.63431
543.88237	0.63464
541.95371	0.63498
540.02505	0.63511
538.09639	0.63476
536.16773	0.63386
534.23907	0.63311
532.31041	0.63287
530.38174	0.63280
528.45308	0.63275
526.52442	0.63252
524.59576	0.63205
522.66710	0.63176
520.73844	0.63151
518.80978	0.63093
516.88112	0.63045
514.95246	0.63045
513.02380	0.63041
511.09514	0.62985
509.16647	0.62907
507.23781	0.62870
505.30915	0.62875
503.38049	0.62880
501.45183	0.62904
499.52317	0.62948
497.59451	0.62941
495.66585	0.62897
493.73719	0.62862
491.80853	0.62827
489.87987	0.62789
487.95120	0.62761
486.02254	0.62738
484.09388	0.62707
482.16522	0.62672
480.23656	0.62682
478.30790	0.62732
476.37924	0.62754
474.45058	0.62747
472.52192	0.62744
470.59326	0.62765
468.66460	0.62817
466.73594	0.62841
464.80727	0.62797
462.87861	0.62720
460.94995	0.62670
459.02129	0.62674
457.09263	0.62694
455.16397	0.62690
453.23531	0.62669
451.30665	0.62664
449.37799	0.62684
447.44933	0.62689
445.52067	0.62669
443.59200	0.62677
441.66334	0.62710
439.73468	0.62714
437.80602	0.62690
435.87736	0.62666
433.94870	0.62665
432.02004	0.62704
430.09138	0.62756
428.16272	0.62766
426.23406	0.62726
424.30540	0.62694
422.37673	0.62712
420.44807	0.62740
418.51941	0.62754
416.59075	0.62748
414.66209	0.62703
412.73343	0.62684
410.80477	0.62710
408.87611	0.62700
406.94745	0.62667
405.01879	0.62669
403.09013	0.62684
401.16146	0.62682
399.23280	0.62676
