4000.04268	0.83113
3998.11402	0.83103
3996.18536	0.83096
3994.25670	0.83094
3992.32804	0.83086
3990.39938	0.83074
3988.47072	0.83081
3986.54206	0.83107
3984.61340	0.83117
3982.68474	0.83097
3980.75607	0.83077
3978.82741	0.83072
3976.89875	0.83062
3974.97009	0.83045
3973.04143	0.83042
3971.11277	0.83058
3969.18411	0.83074
3967.25545	0.83073
3965.32679	0.83051
3963.39813	0.83022
3961.46947	0.83011
3959.54080	0.83017
3957.61214	0.83018
3955.68348	0.83016
3953.75482	0.82999
3951.82616	0.82951
3949.89750	0.82904
3947.96884	0.82905
3946.04018	0.82912
3944.11152	0.82888
3942.18286	0.82902
3940.25420	0.82962
3938.32553	0.82999
3936.39687	0.82982
3934.46821	0.82905
3932.53955	0.82824
3930.61089	0.82828
3928.68223	0.82865
3926.75357	0.82849
3924.82491	0.82821
3922.89625	0.82835
3920.96759	0.82827
3919.03893	0.82779
3917.11026	0.82791
3915.18160	0.82884
3913.25294	0.82961
3911.32428	0.82977
3909.39562	0.82927
3907.46696	0.82771
3905.53830	0.82530
3903.60964	0.82361
3901.68098	0.82359
3899.75232	0.82494
3897.82366	0.82689
3895.89500	0.82791
3893.96633	0.82730
3892.03767	0.82649
3890.10901	0.82677
3888.18035	0.82676
3886.25169	0.82609
3884.32303	0.82583
3882.39437	0.82547
3880.46571	0.82560
3878.53705	0.82676
3876.60839	0.82684
3874.67973	0.82552
3872.75106	0.82405
3870.82240	0.82316
3868.89374	0.82374
3866.96508	0.82446
3865.03642	0.82426
3863.10776	0.82477
3861.17910	0.82609
3859.25044	0.82630
3857.32178	0.82414
3855.39312	0.81959
3853.46446	0.81773
3851.53579	0.82211
3849.60713	0.82622
3847.67847	0.82777
3845.74981	0.82717
3843.82115	0.82526
3841.89249	0.82312
3839.96383	0.82162
3838.03517	0.82208
3836.10651	0.82392
3834.17785	0.82494
3832.24919	0.82534
3830.32052	0.82580
3828.39186	0.82587
3826.46320	0.82552
3824.53454	0.82448
3822.60588	0.82251
3820.67722	0.82189
3818.74856	0.82282
3816.81990	0.82350
3814.89124	0.82504
3812.96258	0.82676
3811.03392	0.82688
3809.10526	0.82539
3807.17659	0.82399
3805.24793	0.82347
3803.31927	0.82224
3801.39061	0.82167
3799.46195	0.82310
3797.53329	0.82441
3795.60463	0.82567
3793.67597	0.82705
3791.74731	0.82774
3789.81865	0.82768
3787.88999	0.82713
3785.96132	0.82649
3784.03266	0.82623
3782.10400	0.82609
3780.17534	0.82593
3778.24668	0.82633
3776.31802	0.82687
3774.38936	0.82668
3772.46070	0.82550
3770.53204	0.82425
3768.60338	0.82406
3766.67472	0.82448
3764.74605	0.82498
3762.81739	0.82489
3760.88873	0.82374
3758.96007	0.82296
3757.03141	0.82310
3755.10275	0.82209
3753.17409	0.81885
3751.24543	0.81604
3749.31677	0.81670
3747.38811	0.81715
3745.45945	0.81617
3743.53078	0.81790
3741.60212	0.82110
3739.67346	0.82178
3737.74480	0.81926
3735.81614	0.81609
3733.88748	0.81614
3731.95882	0.81844
3730.03016	0.81990
3728.10150	0.81972
3726.17284	0.81897
3724.24418	0.81910
3722.31552	0.82012
3720.38685	0.82160
3718.45819	0.82304
3716.52953	0.82338
3714.60087	0.82159
3712.67221	0.81852
3710.74355	0.81786
3708.81489	0.82005
3706.88623	0.82183
3704.95757	0.82184
3703.02891	0.82096
3701.10025	0.82115
3699.17158	0.82234
3697.24292	0.82313
3695.31426	0.82291
3693.38560	0.82150
3691.45694	0.81996
3689.52828	0.82046
3687.59962	0.82260
3685.67096	0.82404
3683.74230	0.82429
3681.81364	0.82340
3679.88498	0.82143
3677.95631	0.81830
3676.02765	0.81607
3674.09899	0.81725
3672.17033	0.81809
3670.24167	0.81830
3668.31301	0.82076
3666.38435	0.82343
3664.45569	0.82467
3662.52703	0.82538
3660.59837	0.82551
3658.66971	0.82399
3656.74104	0.82179
3654.81238	0.82080
3652.88372	0.81943
3650.95506	0.81597
3649.02640	0.81358
3647.09774	0.81569
3645.16908	0.81867
3643.24042	0.81983
3641.31176	0.81959
3639.38310	0.81897
3637.45444	0.81815
3635.52578	0.81688
3633.59711	0.81492
3631.66845	0.81163
3629.73979	0.80807
3627.81113	0.80872
3625.88247	0.81167
3623.95381	0.81280
3622.02515	0.81169
3620.09649	0.80952
3618.16783	0.80868
3616.23917	0.80897
3614.31051	0.80870
3612.38184	0.80809
3610.45318	0.80740
3608.52452	0.80723
3606.59586	0.80853
3604.66720	0.80975
3602.73854	0.80965
3600.80988	0.80916
3598.88122	0.80871
3596.95256	0.80783
3595.02390	0.80758
3593.09524	0.80846
3591.16657	0.80856
3589.23791	0.80759
3587.30925	0.80853
3585.38059	0.81135
3583.45193	0.81288
3581.52327	0.81278
3579.59461	0.81224
3577.66595	0.81208
3575.73729	0.81240
3573.80863	0.81297
3571.87997	0.81314
3569.95130	0.81172
3568.02264	0.80941
3566.09398	0.80964
3564.16532	0.81231
3562.23666	0.81443
3560.30800	0.81518
3558.37934	0.81531
3556.45068	0.81521
3554.52202	0.81496
3552.59336	0.81501
3550.66470	0.81526
3548.73604	0.81551
3546.80737	0.81622
3544.87871	0.81711
3542.95005	0.81713
3541.02139	0.81634
3539.09273	0.81574
3537.16407	0.81558
3535.23541	0.81506
3533.30675	0.81403
3531.37809	0.81296
3529.44943	0.81213
3527.52077	0.81207
3525.59210	0.81287
3523.66344	0.81331
3521.73478	0.81276
3519.80612	0.81216
3517.87746	0.81221
3515.94880	0.81271
3514.02014	0.81282
3512.09148	0.81185
3510.16282	0.81075
3508.23416	0.81063
3506.30550	0.81130
3504.37683	0.81234
3502.44817	0.81311
3500.51951	0.81335
3498.59085	0.81349
3496.66219	0.81343
3494.73353	0.81306
3492.80487	0.81270
3490.87621	0.81257
3488.94755	0.81286
3487.01889	0.81312
3485.09023	0.81273
3483.16156	0.81260
3481.23290	0.81355
3479.30424	0.81415
3477.37558	0.81348
3475.44692	0.81274
3473.51826	0.81310
3471.58960	0.81481
3469.66094	0.81675
3467.73228	0.81698
3465.80362	0.81533
3463.87496	0.81375
3461.94630	0.81352
3460.01763	0.81361
3458.08897	0.81293
3456.16031	0.81217
3454.23165	0.81194
3452.30299	0.81190
3450.37433	0.81175
3448.44567	0.81155
3446.51701	0.81139
3444.58835	0.81130
3442.65969	0.81140
3440.73103	0.81220
3438.80236	0.81392
3436.87370	0.81547
3434.94504	0.81544
3433.01638	0.81444
3431.08772	0.81387
3429.15906	0.81337
3427.23040	0.81221
3425.30174	0.81097
3423.37308	0.81033
3421.44442	0.81020
3419.51576	0.81010
3417.58709	0.81015
3415.65843	0.81090
3413.72977	0.81191
3411.80111	0.81228
3409.87245	0.81195
3407.94379	0.81116
3406.01513	0.81078
3404.08647	0.81218
3402.15781	0.81448
3400.22915	0.81476
3398.30049	0.81272
3396.37182	0.81132
3394.44316	0.81204
3392.51450	0.81300
3390.58584	0.81204
3388.65718	0.80983
3386.72852	0.80832
3384.79986	0.80796
3382.87120	0.80833
3380.94254	0.80890
3379.01388	0.80909
3377.08522	0.80882
3375.15656	0.80854
3373.22789	0.80933
3371.29923	0.81154
3369.37057	0.81326
3367.44191	0.81258
3365.51325	0.81024
3363.58459	0.80856
3361.65593	0.80825
3359.72727	0.80793
3357.79861	0.80708
3355.86995	0.80671
3353.94129	0.80772
3352.01262	0.80936
3350.08396	0.80945
3348.15530	0.80791
3346.22664	0.80712
3344.29798	0.80760
3342.36932	0.80822
3340.44066	0.80888
3338.51200	0.80896
3336.58334	0.80759
3334.65468	0.80579
3332.72602	0.80479
3330.79735	0.80462
3328.86869	0.80533
3326.94003	0.80643
3325.01137	0.80643
3323.08271	0.80514
3321.15405	0.80393
3319.22539	0.80334
3317.29673	0.80309
3315.36807	0.80302
3313.43941	0.80340
3311.51075	0.80486
3309.58208	0.80724
3307.65342	0.80915
3305.72476	0.80892
3303.79610	0.80636
3301.86744	0.80349
3299.93878	0.80245
3298.01012	0.80331
3296.08146	0.80452
3294.15280	0.80496
3292.22414	0.80419
3290.29548	0.80219
3288.36682	0.80020
3286.43815	0.79925
3284.50949	0.79892
3282.58083	0.79869
3280.65217	0.79851
3278.72351	0.79868
3276.79485	0.79955
3274.86619	0.80091
3272.93753	0.80243
3271.00887	0.80284
3269.08021	0.80096
3267.15155	0.79836
3265.22288	0.79702
3263.29422	0.79677
3261.36556	0.79689
3259.43690	0.79742
3257.50824	0.79838
3255.57958	0.79874
3253.65092	0.79808
3251.72226	0.79786
3249.79360	0.79910
3247.86494	0.80055
3245.93628	0.80042
3244.00761	0.79922
3242.07895	0.79858
3240.15029	0.79866
3238.22163	0.79939
3236.29297	0.80127
3234.36431	0.80322
3232.43565	0.80304
3230.50699	0.80127
3228.57833	0.80012
3226.64967	0.80000
3224.72101	0.80025
3222.79234	0.80067
3220.86368	0.80128
3218.93502	0.80179
3217.00636	0.80198
3215.07770	0.80210
3213.14904	0.80223
3211.22038	0.80246
3209.29172	0.80302
3207.36306	0.80362
3205.43440	0.80394
3203.50574	0.80411
3201.57708	0.80428
3199.64841	0.80449
3197.71975	0.80480
3195.79109	0.80522
3193.86243	0.80574
3191.93377	0.80635
3190.00511	0.80686
3188.07645	0.80706
3186.14779	0.80717
3184.21913	0.80749
3182.29047	0.80797
3180.36181	0.80842
3178.43314	0.80882
3176.50448	0.80922
3174.57582	0.80964
3172.64716	0.81005
3170.71850	0.81045
3168.78984	0.81085
3166.86118	0.81126
3164.93252	0.81175
3163.00386	0.81229
3161.07520	0.81280
3159.14654	0.81341
3157.21787	0.81446
3155.28921	0.81633
3153.36055	0.81811
3151.43189	0.81820
3149.50323	0.81702
3147.57457	0.81629
3145.64591	0.81639
3143.71725	0.81724
3141.78859	0.81900
3139.85993	0.82061
3137.93127	0.82062
3136.00260	0.81967
3134.07394	0.81941
3132.14528	0.82025
3130.21662	0.82122
3128.28796	0.82151
3126.35930	0.82165
3124.43064	0.82274
3122.50198	0.82509
3120.57332	0.82772
3118.64466	0.82933
3116.71600	0.82948
3114.78734	0.82838
3112.85867	0.82735
3110.93001	0.82778
3109.00135	0.82861
3107.07269	0.82832
3105.14403	0.82774
3103.21537	0.82821
3101.28671	0.82935
3099.35805	0.82983
3097.42939	0.82951
3095.50073	0.82949
3093.57207	0.83051
3091.64340	0.83202
3089.71474	0.83295
3087.78608	0.83349
3085.85742	0.83440
3083.92876	0.83537
3082.00010	0.83614
3080.07144	0.83674
3078.14278	0.83644
3076.21412	0.83511
3074.28546	0.83396
3072.35680	0.83384
3070.42813	0.83471
3068.49947	0.83579
3066.57081	0.83601
3064.64215	0.83532
3062.71349	0.83463
3060.78483	0.83447
3058.85617	0.83491
3056.92751	0.83553
3054.99885	0.83592
3053.07019	0.83630
3051.14153	0.83650
3049.21286	0.83633
3047.28420	0.83660
3045.35554	0.83759
3043.42688	0.83831
3041.49822	0.83796
3039.56956	0.83687
3037.64090	0.83644
3035.71224	0.83704
3033.78358	0.83723
3031.85492	0.83650
3029.92626	0.83571
3027.99760	0.83544
3026.06893	0.83566
3024.14027	0.83585
3022.21161	0.83592
3020.28295	0.83636
3018.35429	0.83715
3016.42563	0.83812
3014.49697	0.83892
3012.56831	0.83881
3010.63965	0.83752
3008.71099	0.83592
3006.78233	0.83504
3004.85366	0.83492
3002.92500	0.83503
3000.99634	0.83545
2999.06768	0.83618
2997.13902	0.83656
2995.21036	0.83675
2993.28170	0.83706
2991.35304	0.83664
2989.42438	0.83556
2987.49572	0.83496
2985.56706	0.83523
2983.63839	0.83621
2981.70973	0.83729
2979.78107	0.83754
2977.85241	0.83710
2975.92375	0.83676
2973.99509	0.83638
2972.06643	0.83562
2970.13777	0.83495
2968.20911	0.83460
2966.28045	0.83453
2964.35179	0.83469
2962.42313	0.83473
2960.49446	0.83441
2958.56580	0.83408
2956.63714	0.83425
2954.70848	0.83504
2952.77982	0.83569
2950.85116	0.83578
2948.92250	0.83613
2946.99384	0.83690
2945.06518	0.83701
2943.13652	0.83602
2941.20786	0.83460
2939.27919	0.83362
2937.35053	0.83314
2935.42187	0.83288
2933.49321	0.83300
2931.56455	0.83347
2929.63589	0.83329
2927.70723	0.83197
2925.77857	0.83048
2923.84991	0.82946
2921.92125	0.82897
2919.99259	0.82920
2918.06392	0.83008
2916.13526	0.83139
2914.20660	0.83262
2912.27794	0.83308
2910.34928	0.83280
2908.42062	0.83247
2906.49196	0.83254
2904.56330	0.83281
2902.63464	0.83293
2900.70598	0.83303
2898.77732	0.83353
2896.84865	0.83412
2894.91999	0.83410
2892.99133	0.83367
2891.06267	0.83345
2889.13401	0.83348
2887.20535	0.83350
2885.27669	0.83354
2883.34803	0.83361
2881.41937	0.83373
2879.49071	0.83390
2877.56205	0.83444
2875.63339	0.83560
2873.70472	0.83634
2871.77606	0.83570
2869.84740	0.83460
2867.91874	0.83412
2865.99008	0.83395
2864.06142	0.83382
2862.13276	0.83395
2860.20410	0.83395
2858.27544	0.83331
2856.34678	0.83235
2854.41812	0.83146
2852.48945	0.83072
2850.56079	0.83055
2848.63213	0.83112
2846.70347	0.83184
2844.77481	0.83242
2842.84615	0.83334
2840.91749	0.83482
2838.98883	0.83594
2837.06017	0.83593
2835.13151	0.83537
2833.20285	0.83487
2831.27418	0.83445
2829.34552	0.83419
2827.41686	0.83415
2825.48820	0.83424
2823.55954	0.83433
2821.63088	0.83432
2819.70222	0.83428
2817.77356	0.83425
2815.84490	0.83427
2813.91624	0.83447
2811.98758	0.83491
2810.05891	0.83516
2808.13025	0.83484
2806.20159	0.83441
2804.27293	0.83432
2802.34427	0.83461
2800.41561	0.83521
2798.48695	0.83563
2796.55829	0.83542
2794.62963	0.83508
2792.70097	0.83524
2790.77231	0.83568
2788.84365	0.83564
2786.91498	0.83499
2784.98632	0.83444
2783.05766	0.83428
2781.12900	0.83430
2779.20034	0.83450
2777.27168	0.83502
2775.34302	0.83546
2773.41436	0.83532
2771.48570	0.83492
2769.55704	0.83474
2767.62838	0.83467
2765.69971	0.83453
2763.77105	0.83440
2761.84239	0.83432
2759.91373	0.83429
2757.98507	0.83428
2756.05641	0.83427
2754.12775	0.83432
2752.19909	0.83459
2750.27043	0.83499
2748.34177	0.83509
2746.41311	0.83474
2744.48444	0.83428
2742.55578	0.83406
2740.62712	0.83407
2738.69846	0.83419
2736.76980	0.83421
2734.84114	0.83409
2732.91248	0.83397
2730.98382	0.83401
2729.05516	0.83437
2727.12650	0.83482
2725.19784	0.83490
2723.26917	0.83463
2721.34051	0.83430
2719.41185	0.83400
2717.48319	0.83383
2715.55453	0.83379
2713.62587	0.83379
2711.69721	0.83384
2709.76855	0.83386
2707.83989	0.83381
2705.91123	0.83373
2703.98257	0.83366
2702.05391	0.83363
2700.12524	0.83365
2698.19658	0.83365
2696.26792	0.83360
2694.33926	0.83355
2692.41060	0.83353
2690.48194	0.83357
2688.55328	0.83359
2686.62462	0.83356
2684.69596	0.83365
2682.76730	0.83398
2680.83864	0.83437
2678.90997	0.83445
2676.98131	0.83426
2675.05265	0.83409
2673.12399	0.83396
2671.19533	0.83379
2669.26667	0.83361
2667.33801	0.83349
2665.40935	0.83341
2663.48069	0.83339
2661.55203	0.83341
2659.62337	0.83344
2657.69470	0.83346
2655.76604	0.83345
2653.83738	0.83339
2651.90872	0.83335
2649.98006	0.83336
2648.05140	0.83340
2646.12274	0.83342
2644.19408	0.83342
2642.26542	0.83345
2640.33676	0.83355
2638.40810	0.83361
2636.47943	0.83355
2634.55077	0.83344
2632.62211	0.83337
2630.69345	0.83336
2628.76479	0.83342
2626.83613	0.83346
2624.90747	0.83342
2622.97881	0.83334
2621.05015	0.83329
2619.12149	0.83329
2617.19283	0.83331
2615.26417	0.83331
2613.33550	0.83327
2611.40684	0.83320
2609.47818	0.83314
2607.54952	0.83314
2605.62086	0.83319
2603.69220	0.83321
2601.76354	0.83320
2599.83488	0.83319
2597.90622	0.83320
2595.97756	0.83321
2594.04890	0.83319
2592.12023	0.83319
2590.19157	0.83321
2588.26291	0.83321
2586.33425	0.83316
2584.40559	0.83317
2582.47693	0.83326
2580.54827	0.83329
2578.61961	0.83325
2576.69095	0.83323
2574.76229	0.83324
2572.83363	0.83324
2570.90496	0.83324
2568.97630	0.83322
2567.04764	0.83318
2565.11898	0.83317
2563.19032	0.83319
2561.26166	0.83321
2559.33300	0.83320
2557.40434	0.83321
2555.47568	0.83321
2553.54702	0.83321
2551.61836	0.83323
2549.68969	0.83325
2547.76103	0.83328
2545.83237	0.83334
2543.90371	0.83339
2541.97505	0.83338
2540.04639	0.83337
2538.11773	0.83338
2536.18907	0.83341
2534.26041	0.83347
2532.33175	0.83349
2530.40309	0.83348
2528.47443	0.83346
2526.54576	0.83348
2524.61710	0.83352
2522.68844	0.83358
2520.75978	0.83358
2518.83112	0.83354
2516.90246	0.83349
2514.97380	0.83344
2513.04514	0.83336
2511.11648	0.83331
2509.18782	0.83335
2507.25916	0.83342
2505.33049	0.83343
2503.40183	0.83341
2501.47317	0.83340
2499.54451	0.83340
2497.61585	0.83341
2495.68719	0.83342
2493.75853	0.83341
2491.82987	0.83340
2489.90121	0.83343
2487.97255	0.83347
2486.04389	0.83347
2484.11522	0.83346
2482.18656	0.83345
2480.25790	0.83345
2478.32924	0.83350
2476.40058	0.83358
2474.47192	0.83361
2472.54326	0.83356
2470.61460	0.83352
2468.68594	0.83353
2466.75728	0.83356
2464.82862	0.83354
2462.89995	0.83350
2460.97129	0.83349
2459.04263	0.83352
2457.11397	0.83358
2455.18531	0.83361
2453.25665	0.83358
2451.32799	0.83356
2449.39933	0.83357
2447.47067	0.83360
2445.54201	0.83363
2443.61335	0.83360
2441.68469	0.83355
2439.75602	0.83355
2437.82736	0.83360
2435.89870	0.83365
2433.97004	0.83370
2432.04138	0.83372
2430.11272	0.83372
2428.18406	0.83372
2426.25540	0.83372
2424.32674	0.83370
2422.39808	0.83368
2420.46942	0.83365
2418.54075	0.83365
2416.61209	0.83366
2414.68343	0.83368
2412.75477	0.83370
2410.82611	0.83372
2408.89745	0.83373
2406.96879	0.83372
2405.04013	0.83373
2403.11147	0.83376
2401.18281	0.83377
2399.25415	0.83379
2397.32548	0.83379
2395.39682	0.83380
2393.46816	0.83379
2391.53950	0.83367
2389.61084	0.83331
2387.68218	0.83252
2385.75352	0.83095
2383.82486	0.82819
2381.89620	0.82406
2379.96754	0.81880
2378.03888	0.81289
2376.11021	0.80661
2374.18155	0.79981
2372.25289	0.79236
2370.32423	0.78453
2368.39557	0.77695
2366.46691	0.77021
2364.53825	0.76478
2362.60959	0.76109
2360.68093	0.75970
2358.75227	0.76142
2356.82361	0.76656
2354.89495	0.77453
2352.96628	0.78435
2351.03762	0.79325
2349.10896	0.79702
2347.18030	0.79390
2345.25164	0.78686
2343.32298	0.78211
2341.39432	0.78132
2339.46566	0.78228
2337.53700	0.78374
2335.60834	0.78511
2333.67968	0.78589
2331.75101	0.78648
2329.82235	0.78814
2327.89369	0.79079
2325.96503	0.79322
2324.03637	0.79524
2322.10771	0.79779
2320.17905	0.80145
2318.25039	0.80554
2316.32173	0.80886
2314.39307	0.81105
2312.46441	0.81286
2310.53574	0.81499
2308.60708	0.81743
2306.67842	0.81987
2304.74976	0.82202
2302.82110	0.82373
2300.89244	0.82512
2298.96378	0.82634
2297.03512	0.82747
2295.10646	0.82854
2293.17780	0.82955
2291.24914	0.83045
2289.32047	0.83129
2287.39181	0.83207
2285.46315	0.83270
2283.53449	0.83305
2281.60583	0.83306
2279.67717	0.83290
2277.74851	0.83273
2275.81985	0.83260
2273.89119	0.83254
2271.96253	0.83255
2270.03387	0.83258
2268.10521	0.83263
2266.17654	0.83273
2264.24788	0.83285
2262.31922	0.83299
2260.39056	0.83314
2258.46190	0.83329
2256.53324	0.83342
2254.60458	0.83352
2252.67592	0.83364
2250.74726	0.83376
2248.81860	0.83388
2246.88994	0.83398
2244.96127	0.83403
2243.03261	0.83404
2241.10395	0.83404
2239.17529	0.83407
2237.24663	0.83413
2235.31797	0.83417
2233.38931	0.83417
2231.46065	0.83413
2229.53199	0.83410
2227.60333	0.83410
2225.67467	0.83411
2223.74600	0.83411
2221.81734	0.83411
2219.88868	0.83412
2217.96002	0.83414
2216.03136	0.83410
2214.10270	0.83404
2212.17404	0.83401
2210.24538	0.83399
2208.31672	0.83391
2206.38806	0.83383
2204.45940	0.83380
2202.53073	0.83381
2200.60207	0.83380
2198.67341	0.83379
2196.74475	0.83382
2194.81609	0.83385
2192.88743	0.83386
2190.95877	0.83384
2189.03011	0.83382
2187.10145	0.83383
2185.17279	0.83384
2183.24413	0.83385
2181.31547	0.83384
2179.38680	0.83384
2177.45814	0.83385
2175.52948	0.83388
2173.60082	0.83391
2171.67216	0.83392
2169.74350	0.83394
2167.81484	0.83396
2165.88618	0.83397
2163.95752	0.83396
2162.02886	0.83399
2160.10020	0.83402
2158.17153	0.83405
2156.24287	0.83405
2154.31421	0.83406
2152.38555	0.83409
2150.45689	0.83411
2148.52823	0.83411
2146.59957	0.83413
2144.67091	0.83416
2142.74225	0.83417
2140.81359	0.83416
2138.88493	0.83414
2136.95626	0.83413
2135.02760	0.83417
2133.09894	0.83426
2131.17028	0.83430
2129.24162	0.83429
2127.31296	0.83427
2125.38430	0.83426
2123.45564	0.83425
2121.52698	0.83425
2119.59832	0.83427
2117.66966	0.83428
2115.74099	0.83428
2113.81233	0.83433
2111.88367	0.83441
2109.95501	0.83444
2108.02635	0.83444
2106.09769	0.83445
2104.16903	0.83446
2102.24037	0.83445
2100.31171	0.83442
2098.38305	0.83438
2096.45439	0.83439
2094.52573	0.83442
2092.59706	0.83440
2090.66840	0.83437
2088.73974	0.83440
2086.81108	0.83446
2084.88242	0.83450
2082.95376	0.83452
2081.02510	0.83450
2079.09644	0.83444
2077.16778	0.83441
2075.23912	0.83445
2073.31046	0.83449
2071.38179	0.83454
2069.45313	0.83455
2067.52447	0.83446
2065.59581	0.83436
2063.66715	0.83438
2061.73849	0.83446
2059.80983	0.83449
2057.88117	0.83450
2055.95251	0.83452
2054.02385	0.83454
2052.09519	0.83455
2050.16652	0.83458
2048.23786	0.83461
2046.30920	0.83460
2044.38054	0.83452
2042.45188	0.83442
2040.52322	0.83440
2038.59456	0.83447
2036.66590	0.83453
2034.73724	0.83457
2032.80858	0.83461
2030.87992	0.83464
2028.95125	0.83463
2027.02259	0.83461
2025.09393	0.83458
2023.16527	0.83455
2021.23661	0.83448
2019.30795	0.83432
2017.37929	0.83421
2015.45063	0.83433
2013.52197	0.83457
2011.59331	0.83467
2009.66465	0.83463
2007.73599	0.83459
2005.80732	0.83461
2003.87866	0.83465
2001.95000	0.83464
2000.02134	0.83463
1998.09268	0.83468
1996.16402	0.83466
1994.23536	0.83442
1992.30670	0.83418
1990.37804	0.83422
1988.44938	0.83443
1986.52072	0.83461
1984.59205	0.83471
1982.66339	0.83473
1980.73473	0.83474
1978.80607	0.83479
1976.87741	0.83482
1974.94875	0.83481
1973.02009	0.83479
1971.09143	0.83471
1969.16277	0.83449
1967.23411	0.83436
1965.30545	0.83452
1963.37678	0.83476
1961.44812	0.83487
1959.51946	0.83489
1957.59080	0.83485
1955.66214	0.83483
1953.73348	0.83486
1951.80482	0.83491
1949.87616	0.83485
1947.94750	0.83467
1946.01884	0.83437
1944.09018	0.83403
1942.16151	0.83406
1940.23285	0.83449
1938.30419	0.83484
1936.37553	0.83497
1934.44687	0.83500
1932.51821	0.83496
1930.58955	0.83492
1928.66089	0.83490
1926.73223	0.83479
1924.80357	0.83446
1922.87491	0.83420
1920.94625	0.83411
1919.01758	0.83403
1917.08892	0.83426
1915.16026	0.83471
1913.23160	0.83484
1911.30294	0.83464
1909.37428	0.83450
1907.44562	0.83462
1905.51696	0.83479
1903.58830	0.83488
1901.65964	0.83495
1899.73098	0.83498
1897.80231	0.83485
1895.87365	0.83468
1893.94499	0.83458
1892.01633	0.83435
1890.08767	0.83410
1888.15901	0.83431
1886.23035	0.83473
1884.30169	0.83496
1882.37303	0.83506
1880.44437	0.83507
1878.51571	0.83504
1876.58704	0.83503
1874.65838	0.83499
1872.72972	0.83458
1870.80106	0.83365
1868.87240	0.83300
1866.94374	0.83353
1865.01508	0.83443
1863.08642	0.83485
1861.15776	0.83491
1859.22910	0.83493
1857.30044	0.83499
1855.37177	0.83503
1853.44311	0.83500
1851.51445	0.83486
1849.58579	0.83457
1847.65713	0.83403
1845.72847	0.83332
1843.79981	0.83328
1841.87115	0.83409
1839.94249	0.83469
1838.01383	0.83475
1836.08517	0.83473
1834.15651	0.83462
1832.22784	0.83400
1830.29918	0.83335
1828.37052	0.83345
1826.44186	0.83380
1824.51320	0.83414
1822.58454	0.83468
1820.65588	0.83501
1818.72722	0.83503
1816.79856	0.83505
1814.86990	0.83502
1812.94124	0.83470
1811.01257	0.83441
1809.08391	0.83459
1807.15525	0.83492
1805.22659	0.83489
1803.29793	0.83438
1801.36927	0.83385
1799.44061	0.83387
1797.51195	0.83410
1795.58329	0.83390
1793.65463	0.83322
1791.72597	0.83315
1789.79730	0.83410
1787.86864	0.83484
1785.93998	0.83491
1784.01132	0.83473
1782.08266	0.83452
1780.15400	0.83450
1778.22534	0.83467
1776.29668	0.83441
1774.36802	0.83348
1772.43936	0.83272
1770.51070	0.83312
1768.58203	0.83406
1766.65337	0.83483
1764.72471	0.83495
1762.79605	0.83453
1760.86739	0.83439
1758.93873	0.83452
1757.01007	0.83457
1755.08141	0.83457
1753.15275	0.83396
1751.22409	0.83268
1749.29543	0.83205
1747.36677	0.83248
1745.43810	0.83301
1743.50944	0.83319
1741.58078	0.83315
1739.65212	0.83324
1737.72346	0.83322
1735.79480	0.83243
1733.86614	0.83177
1731.93748	0.83269
1730.00882	0.83400
1728.08016	0.83503
1726.15150	0.83551
1724.22283	0.83544
1722.29417	0.83505
1720.36551	0.83397
1718.43685	0.83227
1716.50819	0.83187
1714.57953	0.83320
1712.65087	0.83449
1710.72221	0.83503
1708.79355	0.83470
1706.86489	0.83387
1704.93623	0.83334
1703.00756	0.83279
1701.07890	0.83160
1699.15024	0.83104
1697.22158	0.83174
1695.29292	0.83322
1693.36426	0.83461
1691.43560	0.83489
1689.50694	0.83439
1687.57828	0.83351
1685.64962	0.83197
1683.72096	0.83140
1681.79229	0.83289
1679.86363	0.83420
1677.93497	0.83456
1676.00631	0.83424
1674.07765	0.83392
1672.14899	0.83353
1670.22033	0.83318
1668.29167	0.83398
1666.36301	0.83502
1664.43435	0.83508
1662.50569	0.83490
1660.57703	0.83531
1658.64836	0.83544
1656.71970	0.83433
1654.79104	0.83196
1652.86238	0.83106
1650.93372	0.83242
1649.00506	0.83250
1647.07640	0.83230
1645.14774	0.83377
1643.21908	0.83524
1641.29042	0.83554
1639.36176	0.83477
1637.43309	0.83330
1635.50443	0.83303
1633.57577	0.83464
1631.64711	0.83570
1629.71845	0.83563
1627.78979	0.83522
1625.86113	0.83492
1623.93247	0.83477
1622.00381	0.83513
1620.07515	0.83542
1618.14649	0.83511
1616.21782	0.83524
1614.28916	0.83618
1612.36050	0.83668
1610.43184	0.83653
1608.50318	0.83624
1606.57452	0.83600
1604.64586	0.83559
1602.71720	0.83497
1600.78854	0.83433
1598.85988	0.83350
1596.93122	0.83223
1595.00255	0.83052
1593.07389	0.82841
1591.14523	0.82570
1589.21657	0.82245
1587.28791	0.81914
1585.35925	0.81630
1583.43059	0.81435
1581.50193	0.81352
1579.57327	0.81348
1577.64461	0.81431
1575.71595	0.81723
1573.78729	0.82078
1571.85862	0.82307
1569.92996	0.82513
1568.00130	0.82764
1566.07264	0.82965
1564.14398	0.83074
1562.21532	0.83059
1560.28666	0.82890
1558.35800	0.82856
1556.42934	0.83083
1554.50068	0.83237
1552.57202	0.83291
1550.64335	0.83296
1548.71469	0.83293
1546.78603	0.83234
1544.85737	0.83078
1542.92871	0.82891
1541.00005	0.82799
1539.07139	0.82979
1537.14273	0.83193
1535.21407	0.83259
1533.28541	0.83298
1531.35675	0.83389
1529.42808	0.83428
1527.49942	0.83394
1525.57076	0.83354
1523.64210	0.83312
1521.71344	0.83306
1519.78478	0.83375
1517.85612	0.83443
1515.92746	0.83536
1513.99880	0.83633
1512.07014	0.83626
1510.14148	0.83483
1508.21281	0.83298
1506.28415	0.83383
1504.35549	0.83645
1502.42683	0.83750
1500.49817	0.83725
1498.56951	0.83666
1496.64085	0.83677
1494.71219	0.83733
1492.78353	0.83700
1490.85487	0.83580
1488.92621	0.83548
1486.99755	0.83669
1485.06888	0.83786
1483.14022	0.83827
1481.21156	0.83824
1479.28290	0.83801
1477.35424	0.83734
1475.42558	0.83627
1473.49692	0.83558
1471.56826	0.83624
1469.63960	0.83734
1467.71094	0.83759
1465.78228	0.83728
1463.85361	0.83738
1461.92495	0.83743
1459.99629	0.83650
1458.06763	0.83515
1456.13897	0.83557
1454.21031	0.83698
1452.28165	0.83775
1450.35299	0.83782
1448.42433	0.83767
1446.49567	0.83790
1444.56701	0.83830
1442.63834	0.83838
1440.70968	0.83806
1438.78102	0.83729
1436.85236	0.83661
1434.92370	0.83685
1432.99504	0.83727
1431.06638	0.83736
1429.13772	0.83751
1427.20906	0.83763
1425.28040	0.83735
1423.35174	0.83698
1421.42307	0.83661
1419.49441	0.83616
1417.56575	0.83653
1415.63709	0.83753
1413.70843	0.83814
1411.77977	0.83827
1409.85111	0.83832
1407.92245	0.83823
1405.99379	0.83792
1404.06513	0.83779
1402.13647	0.83776
1400.20781	0.83737
1398.27914	0.83691
1396.35048	0.83684
1394.42182	0.83730
1392.49316	0.83800
1390.56450	0.83818
1388.63584	0.83786
1386.70718	0.83789
1384.77852	0.83848
1382.84986	0.83878
1380.92120	0.83859
1378.99254	0.83825
1377.06387	0.83784
1375.13521	0.83747
1373.20655	0.83761
1371.27789	0.83799
1369.34923	0.83812
1367.42057	0.83812
1365.49191	0.83782
1363.56325	0.83724
1361.63459	0.83724
1359.70593	0.83781
1357.77727	0.83812
1355.84860	0.83809
1353.91994	0.83809
1351.99128	0.83816
1350.06262	0.83822
1348.13396	0.83830
1346.20530	0.83841
1344.27664	0.83836
1342.34798	0.83792
1340.41932	0.83731
1338.49066	0.83729
1336.56200	0.83792
1334.63333	0.83855
1332.70467	0.83884
1330.77601	0.83894
1328.84735	0.83900
1326.91869	0.83904
1324.99003	0.83908
1323.06137	0.83902
1321.13271	0.83877
1319.20405	0.83850
1317.27539	0.83849
1315.34673	0.83865
1313.41807	0.83886
1311.48940	0.83911
1309.56074	0.83930
1307.63208	0.83940
1305.70342	0.83944
1303.77476	0.83950
1301.84610	0.83962
1299.91744	0.83975
1297.98878	0.83980
1296.06012	0.83980
1294.13146	0.83977
1292.20280	0.83970
1290.27413	0.83959
1288.34547	0.83951
1286.41681	0.83944
1284.48815	0.83934
1282.55949	0.83929
1280.63083	0.83932
1278.70217	0.83938
1276.77351	0.83941
1274.84485	0.83936
1272.91619	0.83924
1270.98753	0.83914
1269.05886	0.83909
1267.13020	0.83905
1265.20154	0.83901
1263.27288	0.83899
1261.34422	0.83899
1259.41556	0.83907
1257.48690	0.83922
1255.55824	0.83932
1253.62958	0.83927
1251.70092	0.83913
1249.77226	0.83902
1247.84359	0.83895
1245.91493	0.83886
1243.98627	0.83874
1242.05761	0.83864
1240.12895	0.83856
1238.20029	0.83846
1236.27163	0.83840
1234.34297	0.83835
1232.41431	0.83825
1230.48565	0.83813
1228.55699	0.83800
1226.62833	0.83786
1224.69966	0.83774
1222.77100	0.83765
1220.84234	0.83750
1218.91368	0.83730
1216.98502	0.83713
1215.05636	0.83698
1213.12770	0.83680
1211.19904	0.83658
1209.27038	0.83637
1207.34172	0.83622
1205.41306	0.83610
1203.48439	0.83598
1201.55573	0.83586
1199.62707	0.83576
1197.69841	0.83569
1195.76975	0.83559
1193.84109	0.83551
1191.91243	0.83548
1189.98377	0.83549
1188.05511	0.83549
1186.12645	0.83549
1184.19779	0.83546
1182.26912	0.83535
1180.34046	0.83520
1178.41180	0.83500
1176.48314	0.83474
1174.55448	0.83447
1172.62582	0.83422
1170.69716	0.83400
1168.76850	0.83384
1166.83984	0.83373
1164.91118	0.83360
1162.98252	0.83349
1161.05385	0.83341
1159.12519	0.83331
1157.19653	0.83318
1155.26787	0.83308
1153.33921	0.83302
1151.41055	0.83296
1149.48189	0.83292
1147.55323	0.83288
1145.62457	0.83278
1143.69591	0.83264
1141.76725	0.83258
1139.83859	0.83263
1137.90992	0.83267
1135.98126	0.83267
1134.05260	0.83266
1132.12394	0.83264
1130.19528	0.83256
1128.26662	0.83244
1126.33796	0.83234
1124.40930	0.83227
1122.48064	0.83223
1120.55198	0.83219
1118.62332	0.83208
1116.69465	0.83190
1114.76599	0.83172
1112.83733	0.83160
1110.90867	0.83149
1108.98001	0.83136
1107.05135	0.83119
1105.12269	0.83103
1103.19403	0.83092
1101.26537	0.83074
1099.33671	0.83048
1097.40805	0.83023
1095.47938	0.83002
1093.55072	0.82979
1091.62206	0.82961
1089.69340	0.82948
1087.76474	0.82935
1085.83608	0.82921
1083.90742	0.82906
1081.97876	0.82895
1080.05010	0.82891
1078.12144	0.82890
1076.19278	0.82885
1074.26411	0.82877
1072.33545	0.82869
1070.40679	0.82862
1068.47813	0.82853
1066.54947	0.82850
1064.62081	0.82855
1062.69215	0.82863
1060.76349	0.82869
1058.83483	0.82874
1056.90617	0.82881
1054.97751	0.82892
1053.04885	0.82908
1051.12018	0.82923
1049.19152	0.82923
1047.26286	0.82910
1045.33420	0.82903
1043.40554	0.82910
1041.47688	0.82921
1039.54822	0.82921
1037.61956	0.82914
1035.69090	0.82909
1033.76224	0.82903
1031.83358	0.82896
1029.90491	0.82889
1027.97625	0.82880
1026.04759	0.82864
1024.11893	0.82846
1022.19027	0.82829
1020.26161	0.82815
1018.33295	0.82802
1016.40429	0.82785
1014.47563	0.82770
1012.54697	0.82762
1010.61831	0.82755
1008.68964	0.82733
1006.76098	0.82701
1004.83232	0.82673
1002.90366	0.82650
1000.97500	0.82621
999.04634	0.82589
997.11768	0.82564
995.18902	0.82539
993.26036	0.82511
991.33170	0.82483
989.40304	0.82457
987.47438	0.82436
985.54571	0.82416
983.61705	0.82384
981.68839	0.82338
979.75973	0.82296
977.83107	0.82271
975.90241	0.82257
973.97375	0.82239
972.04509	0.82216
970.11643	0.82194
968.18777	0.82175
966.25911	0.82158
964.33044	0.82142
962.40178	0.82125
960.47312	0.82104
958.54446	0.82084
956.61580	0.82063
954.68714	0.82043
952.75848	0.82027
950.82982	0.82008
948.90116	0.81981
946.97250	0.81958
945.04384	0.81944
943.11517	0.81929
941.18651	0.81910
939.25785	0.81894
937.32919	0.81873
935.40053	0.81847
933.47187	0.81827
931.54321	0.81814
929.61455	0.81801
927.68589	0.81786
925.75723	0.81774
923.82857	0.81768
921.89990	0.81769
919.97124	0.81765
918.04258	0.81747
916.11392	0.81719
914.18526	0.81689
912.25660	0.81667
910.32794	0.81652
908.39928	0.81636
906.47062	0.81615
904.54196	0.81598
902.61330	0.81587
900.68464	0.81571
898.75597	0.81544
896.82731	0.81517
894.89865	0.81499
892.96999	0.81488
891.04133	0.81475
889.11267	0.81458
887.18401	0.81449
885.25535	0.81458
883.32669	0.81466
881.39803	0.81452
879.46937	0.81427
877.54070	0.81410
875.61204	0.81394
873.68338	0.81365
871.75472	0.81326
869.82606	0.81294
867.89740	0.81274
865.96874	0.81258
864.04008	0.81235
862.11142	0.81199
860.18276	0.81156
858.25410	0.81118
856.32543	0.81086
854.39677	0.81053
852.46811	0.81015
850.53945	0.80984
848.61079	0.80966
846.68213	0.80951
844.75347	0.80936
842.82481	0.80920
840.89615	0.80899
838.96749	0.80877
837.03883	0.80856
835.11016	0.80831
833.18150	0.80791
831.25284	0.80738
829.32418	0.80674
827.39552	0.80590
825.46686	0.80480
823.53820	0.80356
821.60954	0.80226
819.68088	0.80091
817.75222	0.79953
815.82356	0.79813
813.89490	0.79664
811.96623	0.79510
810.03757	0.79363
808.10891	0.79215
806.18025	0.79046
804.25159	0.78851
802.32293	0.78636
800.39427	0.78397
798.46561	0.78118
796.53695	0.77807
794.60829	0.77493
792.67963	0.77200
790.75096	0.76921
788.82230	0.76650
786.89364	0.76379
784.96498	0.76099
783.03632	0.75810
781.10766	0.75521
779.17900	0.75230
777.25034	0.74926
775.32168	0.74618
773.39302	0.74315
771.46436	0.74012
769.53569	0.73702
767.60703	0.73381
765.67837	0.73038
763.74971	0.72677
761.82105	0.72321
759.89239	0.71970
757.96373	0.71610
756.03507	0.71241
754.10641	0.70876
752.17775	0.70522
750.24909	0.70166
748.32042	0.69791
746.39176	0.69401
744.46310	0.69019
742.53444	0.68666
740.60578	0.68337
738.67712	0.68011
736.74846	0.67679
734.81980	0.67347
732.89114	0.67042
730.96248	0.66786
729.03382	0.66566
727.10516	0.66353
725.17649	0.66123
723.24783	0.65845
721.31917	0.65529
719.39051	0.65260
717.46185	0.65064
715.53319	0.64883
713.60453	0.64706
711.67587	0.64563
709.74721	0.64460
707.81855	0.64382
705.88989	0.64316
703.96122	0.64259
702.03256	0.64203
700.10390	0.64153
698.17524	0.64113
696.24658	0.64067
694.31792	0.64017
692.38926	0.63986
690.46060	0.63971
688.53194	0.63951
686.60328	0.63928
684.67462	0.63928
682.74595	0.63973
680.81729	0.64047
678.88863	0.64128
676.95997	0.64234
675.03131	0.64371
673.10265	0.64434
671.17399	0.64245
669.24533	0.63968
667.31667	0.64310
665.38801	0.64918
663.45935	0.65175
661.53068	0.65255
659.60202	0.65346
657.67336	0.65462
655.74470	0.65602
653.81604	0.65762
651.88738	0.65907
649.95872	0.66056
648.03006	0.66261
646.10140	0.66461
644.17274	0.66586
642.24408	0.66660
640.31542	0.66729
638.38675	0.66786
636.45809	0.66786
634.52943	0.66723
632.60077	0.66643
630.67211	0.66549
628.74345	0.66443
626.81479	0.66327
624.88613	0.66213
622.95747	0.66099
621.02881	0.65956
619.10015	0.65791
617.17148	0.65669
615.24282	0.65589
613.31416	0.65493
611.38550	0.65451
609.45684	0.65498
607.52818	0.65534
605.59952	0.65553
603.67086	0.65634
601.74220	0.65764
599.81354	0.65897
597.88488	0.66068
595.95621	0.66239
594.02755	0.66375
592.09889	0.66502
590.17023	0.66627
588.24157	0.66741
586.31291	0.66828
584.38425	0.66867
582.45559	0.66905
580.52693	0.66970
578.59827	0.67043
576.66961	0.67077
574.74094	0.67061
572.81228	0.67047
570.88362	0.67087
568.95496	0.67165
567.02630	0.67222
565.09764	0.67258
563.16898	0.67300
561.24032	0.67321
559.31166	0.67313
557.38300	0.67323
555.45434	0.67364
553.52568	0.67414
551.59701	0.67449
549.66835	0.67443
547.73969	0.67402
545.81103	0.67359
543.88237	0.67341
541.95371	0.67366
540.02505	0.67398
538.09639	0.67387
536.16773	0.67333
534.23907	0.67266
532.31041	0.67242
530.38174	0.67273
528.45308	0.67294
526.52442	0.67272
524.59576	0.67221
522.66710	0.67152
520.73844	0.67091
518.80978	0.67043
516.88112	0.66987
514.95246	0.66951
513.02380	0.66980
511.09514	0.67010
509.16647	0.66956
507.23781	0.66885
505.30915	0.66860
503.38049	0.66823
501.45183	0.66789
499.52317	0.66797
497.59451	0.66786
495.66585	0.66743
493.73719	0.66703
491.80853	0.66691
489.87987	0.66729
487.95120	0.66771
486.02254	0.66756
484.09388	0.66706
482.16522	0.66670
480.23656	0.66664
478.30790	0.66689
476.37924	0.66715
474.45058	0.66702
472.52192	0.66678
470.59326	0.66688
468.66460	0.66734
466.73594	0.66765
464.80727	0.66747
462.87861	0.66705
460.94995	0.66678
459.02129	0.66668
457.09263	0.66660
455.16397	0.66646
453.23531	0.66637
451.30665	0.66656
449.37799	0.66693
447.44933	0.66714
445.52067	0.66723
443.59200	0.66731
441.66334	0.66733
439.73468	0.66735
437.80602	0.66741
435.87736	0.66724
433.94870	0.66709
432.02004	0.66742
430.09138	0.66777
428.16272	0.66744
426.23406	0.66662
424.30540	0.66614
422.37673	0.66633
420.44807	0.66627
418.51941	0.66567
416.59075	0.66531
414.66209	0.66535
412.73343	0.66557
410.80477	0.66599
408.87611	0.66650
406.94745	0.66680
405.01879	0.66669
403.09013	0.66634
401.16146	0.66631
399.23280	0.66694
