3996.23848	0.34968
3994.30979	0.34874
3992.38110	0.35212
3990.45242	0.35397
3988.52373	0.35052
3986.59504	0.34612
3984.66636	0.34102
3982.73767	0.33541
3980.80898	0.33603
3978.88030	0.34300
3976.95161	0.34783
3975.02292	0.34620
3973.09424	0.34394
3971.16555	0.34631
3969.23687	0.34933
3967.30818	0.34898
3965.37949	0.34688
3963.45081	0.34509
3961.52212	0.34446
3959.59343	0.34368
3957.66475	0.34258
3955.73606	0.34464
3953.80737	0.34749
3951.87869	0.34684
3949.95000	0.34618
3948.02131	0.34705
3946.09263	0.34712
3944.16394	0.34796
3942.23525	0.34914
3940.30657	0.34642
3938.37788	0.34090
3936.44919	0.33837
3934.52051	0.34184
3932.59182	0.34774
3930.66313	0.34900
3928.73445	0.34710
3926.80576	0.34984
3924.87708	0.35516
3922.94839	0.35453
3921.01970	0.34973
3919.09102	0.34968
3917.16233	0.35322
3915.23364	0.35324
3913.30496	0.35186
3911.37627	0.35198
3909.44758	0.34944
3907.51890	0.34552
3905.59021	0.34646
3903.66152	0.35119
3901.73284	0.35205
3899.80415	0.34702
3897.87546	0.34378
3895.94678	0.34581
3894.01809	0.34813
3892.08940	0.35014
3890.16072	0.35370
3888.23203	0.35438
3886.30334	0.34999
3884.37466	0.34619
3882.44597	0.34586
3880.51729	0.34572
3878.58860	0.34367
3876.65991	0.34287
3874.73123	0.34557
3872.80254	0.34757
3870.87385	0.34581
3868.94517	0.34268
3867.01648	0.34232
3865.08779	0.34586
3863.15911	0.34831
3861.23042	0.34740
3859.30173	0.34643
3857.37305	0.34547
3855.44436	0.34367
3853.51567	0.34254
3851.58699	0.34271
3849.65830	0.34495
3847.72961	0.34761
3845.80093	0.34759
3843.87224	0.34720
3841.94355	0.34701
3840.01487	0.34357
3838.08618	0.34012
3836.15750	0.34239
3834.22881	0.34805
3832.30012	0.35083
3830.37144	0.34846
3828.44275	0.34355
3826.51406	0.34046
3824.58538	0.34161
3822.65669	0.34542
3820.72800	0.34782
3818.79932	0.34813
3816.87063	0.34838
3814.94194	0.34818
3813.01326	0.34733
3811.08457	0.34591
3809.15588	0.34502
3807.22720	0.34677
3805.29851	0.34907
3803.36982	0.34920
3801.44114	0.34949
3799.51245	0.35168
3797.58376	0.35206
3795.65508	0.34961
3793.72639	0.34858
3791.79771	0.34935
3789.86902	0.34949
3787.94033	0.34827
3786.01165	0.34591
3784.08296	0.34399
3782.15427	0.34303
3780.22559	0.34159
3778.29690	0.34062
3776.36821	0.34221
3774.43953	0.34373
3772.51084	0.34240
3770.58215	0.34141
3768.65347	0.34230
3766.72478	0.34177
3764.79609	0.34062
3762.86741	0.34240
3760.93872	0.34409
3759.01003	0.34212
3757.08135	0.34109
3755.15266	0.34357
3753.22397	0.34512
3751.29529	0.34475
3749.36660	0.34464
3747.43792	0.34525
3745.50923	0.34417
3743.58054	0.33828
3741.65186	0.33227
3739.72317	0.33088
3737.79448	0.33247
3735.86580	0.33639
3733.93711	0.33952
3732.00842	0.33743
3730.07974	0.33415
3728.15105	0.33563
3726.22236	0.33823
3724.29368	0.33577
3722.36499	0.33140
3720.43630	0.33018
3718.50762	0.33168
3716.57893	0.33409
3714.65024	0.33607
3712.72156	0.33787
3710.79287	0.33930
3708.86418	0.33757
3706.93550	0.33213
3705.00681	0.32788
3703.07812	0.32872
3701.14944	0.33081
3699.22075	0.33228
3697.29207	0.33512
3695.36338	0.33561
3693.43469	0.33296
3691.50601	0.33320
3689.57732	0.33753
3687.64863	0.34136
3685.71995	0.34172
3683.79126	0.33790
3681.86257	0.33181
3679.93389	0.32810
3678.00520	0.32633
3676.07651	0.32533
3674.14783	0.32907
3672.21914	0.33482
3670.29045	0.33295
3668.36177	0.32394
3666.43308	0.31937
3664.50439	0.32307
3662.57571	0.32661
3660.64702	0.32755
3658.71833	0.32964
3656.78965	0.33021
3654.86096	0.33002
3652.93228	0.33251
3651.00359	0.33183
3649.07490	0.32743
3647.14622	0.32612
3645.21753	0.32697
3643.28884	0.32780
3641.36016	0.32874
3639.43147	0.32795
3637.50278	0.32712
3635.57410	0.32983
3633.64541	0.33256
3631.71672	0.32930
3629.78804	0.32477
3627.85935	0.32642
3625.93066	0.32991
3624.00198	0.33171
3622.07329	0.33439
3620.14460	0.33666
3618.21592	0.33677
3616.28723	0.33496
3614.35854	0.33108
3612.42986	0.32635
3610.50117	0.32544
3608.57249	0.32982
3606.64380	0.33310
3604.71511	0.33234
3602.78643	0.32922
3600.85774	0.32529
3598.92905	0.32530
3597.00037	0.32953
3595.07168	0.33194
3593.14299	0.33177
3591.21431	0.33107
3589.28562	0.32915
3587.35693	0.32876
3585.42825	0.33088
3583.49956	0.33188
3581.57087	0.33228
3579.64219	0.33317
3577.71350	0.33402
3575.78481	0.33436
3573.85613	0.33412
3571.92744	0.33669
3569.99875	0.33992
3568.07007	0.33680
3566.14138	0.33249
3564.21270	0.33553
3562.28401	0.34067
3560.35532	0.33958
3558.42664	0.33394
3556.49795	0.33101
3554.56926	0.33178
3552.64058	0.33113
3550.71189	0.32887
3548.78320	0.32901
3546.85452	0.33166
3544.92583	0.33388
3542.99714	0.33450
3541.06846	0.33177
3539.13977	0.32673
3537.21108	0.32594
3535.28240	0.32837
3533.35371	0.32871
3531.42502	0.32816
3529.49634	0.32862
3527.56765	0.33069
3525.63896	0.33358
3523.71028	0.33464
3521.78159	0.33264
3519.85291	0.32985
3517.92422	0.32825
3515.99553	0.32610
3514.06685	0.32519
3512.13816	0.32853
3510.20947	0.33231
3508.28079	0.33144
3506.35210	0.32668
3504.42341	0.32308
3502.49473	0.32282
3500.56604	0.32372
3498.63735	0.32383
3496.70867	0.32311
3494.77998	0.32363
3492.85129	0.32631
3490.92261	0.32801
3488.99392	0.32630
3487.06523	0.32508
3485.13655	0.32868
3483.20786	0.33314
3481.27917	0.33303
3479.35049	0.32929
3477.42180	0.32522
3475.49312	0.32359
3473.56443	0.32380
3471.63574	0.32305
3469.70706	0.32085
3467.77837	0.31896
3465.84968	0.32164
3463.92100	0.32920
3461.99231	0.33540
3460.06362	0.33803
3458.13494	0.33877
3456.20625	0.33740
3454.27756	0.33434
3452.34888	0.33107
3450.42019	0.32908
3448.49150	0.32925
3446.56282	0.33003
3444.63413	0.33083
3442.70544	0.33277
3440.77676	0.33424
3438.84807	0.33427
3436.91938	0.33559
3434.99070	0.33887
3433.06201	0.33921
3431.13333	0.33428
3429.20464	0.33196
3427.27595	0.33583
3425.34727	0.33865
3423.41858	0.33753
3421.48989	0.33409
3419.56121	0.32926
3417.63252	0.32603
3415.70383	0.32652
3413.77515	0.32868
3411.84646	0.32876
3409.91777	0.32661
3407.98909	0.32459
3406.06040	0.32324
3404.13171	0.32341
3402.20303	0.32724
3400.27434	0.33341
3398.34565	0.33752
3396.41697	0.33913
3394.48828	0.33973
3392.55959	0.33820
3390.63091	0.33670
3388.70222	0.33831
3386.77354	0.33904
3384.84485	0.33613
3382.91616	0.33527
3380.98748	0.33802
3379.05879	0.33782
3377.13010	0.33359
3375.20142	0.32977
3373.27273	0.32622
3371.34404	0.32352
3369.41536	0.32720
3367.48667	0.33431
3365.55798	0.33590
3363.62930	0.33375
3361.70061	0.33317
3359.77192	0.33343
3357.84324	0.33247
3355.91455	0.33080
3353.98586	0.33132
3352.05718	0.33401
3350.12849	0.33629
3348.19980	0.33808
3346.27112	0.34073
3344.34243	0.34339
3342.41375	0.34185
3340.48506	0.33573
3338.55637	0.33027
3336.62769	0.32789
3334.69900	0.32834
3332.77031	0.33094
3330.84163	0.33323
3328.91294	0.33440
3326.98425	0.33452
3325.05557	0.33203
3323.12688	0.32969
3321.19819	0.33060
3319.26951	0.33033
3317.34082	0.32876
3315.41213	0.33094
3313.48345	0.33554
3311.55476	0.33924
3309.62607	0.34089
3307.69739	0.33887
3305.76870	0.33415
3303.84001	0.33150
3301.91133	0.33169
3299.98264	0.33179
3298.05396	0.33286
3296.12527	0.33438
3294.19658	0.33260
3292.26790	0.33005
3290.33921	0.33145
3288.41052	0.33364
3286.48184	0.33150
3284.55315	0.32819
3282.62446	0.32961
3280.69578	0.33446
3278.76709	0.33650
3276.83840	0.33419
3274.90972	0.33201
3272.98103	0.33301
3271.05234	0.33571
3269.12366	0.33807
3267.19497	0.33748
3265.26628	0.33209
3263.33760	0.32812
3261.40891	0.33048
3259.48022	0.33370
3257.55154	0.33477
3255.62285	0.33542
3253.69417	0.33493
3251.76548	0.33420
3249.83679	0.33485
3247.90811	0.33387
3245.97942	0.32984
3244.05073	0.32626
3242.12205	0.32526
3240.19336	0.32686
3238.26467	0.32980
3236.33599	0.33253
3234.40730	0.33537
3232.47861	0.33597
3230.54993	0.33374
3228.62124	0.33388
3226.69255	0.33690
3224.76387	0.33808
3222.83518	0.33510
3220.90649	0.33102
3218.97781	0.33065
3217.04912	0.33267
3215.12043	0.33222
3213.19175	0.33022
3211.26306	0.33128
3209.33437	0.33406
3207.40569	0.33421
3205.47700	0.33332
3203.54832	0.33288
3201.61963	0.33107
3199.69094	0.32845
3197.76226	0.32698
3195.83357	0.32705
3193.90488	0.32744
3191.97620	0.32713
3190.04751	0.32737
3188.11882	0.32927
3186.19014	0.33155
3184.26145	0.33390
3182.33276	0.33628
3180.40408	0.33679
3178.47539	0.33445
3176.54670	0.33100
3174.61802	0.33042
3172.68933	0.33267
3170.76064	0.33348
3168.83196	0.33307
3166.90327	0.33272
3164.97458	0.33065
3163.04590	0.32785
3161.11721	0.32739
3159.18853	0.32853
3157.25984	0.32943
3155.33115	0.33112
3153.40247	0.33402
3151.47378	0.33651
3149.54509	0.33780
3147.61641	0.33607
3145.68772	0.33023
3143.75903	0.32605
3141.83035	0.32699
3139.90166	0.32970
3137.97297	0.33327
3136.04429	0.33667
3134.11560	0.33767
3132.18691	0.33797
3130.25823	0.33836
3128.32954	0.33607
3126.40085	0.33264
3124.47217	0.33270
3122.54348	0.33504
3120.61479	0.33561
3118.68611	0.33349
3116.75742	0.33040
3114.82874	0.32732
3112.90005	0.32519
3110.97136	0.32605
3109.04268	0.32871
3107.11399	0.33017
3105.18530	0.32872
3103.25662	0.32568
3101.32793	0.32530
3099.39924	0.32742
3097.47056	0.32913
3095.54187	0.32994
3093.61318	0.32993
3091.68450	0.33016
3089.75581	0.33105
3087.82712	0.33188
3085.89844	0.33349
3083.96975	0.33555
3082.04106	0.33636
3080.11238	0.33671
3078.18369	0.33675
3076.25500	0.33572
3074.32632	0.33520
3072.39763	0.33480
3070.46895	0.33316
3068.54026	0.33207
3066.61157	0.33135
3064.68289	0.32898
3062.75420	0.32769
3060.82551	0.33026
3058.89683	0.33266
3056.96814	0.33217
3055.03945	0.33130
3053.11077	0.33019
3051.18208	0.32968
3049.25339	0.33139
3047.32471	0.33226
3045.39602	0.33182
3043.46733	0.33344
3041.53865	0.33631
3039.60996	0.33678
3037.68127	0.33453
3035.75259	0.33227
3033.82390	0.33130
3031.89521	0.33159
3029.96653	0.33387
3028.03784	0.33742
3026.10916	0.33790
3024.18047	0.33405
3022.25178	0.33028
3020.32310	0.32960
3018.39441	0.33128
3016.46572	0.33238
3014.53704	0.33238
3012.60835	0.33285
3010.67966	0.33123
3008.75098	0.32836
3006.82229	0.32925
3004.89360	0.33127
3002.96492	0.33028
3001.03623	0.32950
2999.10754	0.33118
2997.17886	0.33258
2995.25017	0.33238
2993.32148	0.33180
2991.39280	0.33125
2989.46411	0.33019
2987.53542	0.32945
2985.60674	0.32983
2983.67805	0.32976
2981.74937	0.32940
2979.82068	0.33133
2977.89199	0.33438
2975.96331	0.33530
2974.03462	0.33331
2972.10593	0.33091
2970.17725	0.33159
2968.24856	0.33347
2966.31987	0.33298
2964.39119	0.33287
2962.46250	0.33373
2960.53381	0.33151
2958.60513	0.32933
2956.67644	0.33105
2954.74775	0.33234
2952.81907	0.33201
2950.89038	0.33272
2948.96169	0.33242
2947.03301	0.32938
2945.10432	0.32715
2943.17563	0.32830
2941.24695	0.33022
2939.31826	0.33290
2937.38958	0.33851
2935.46089	0.34257
2933.53220	0.34105
2931.60352	0.33694
2929.67483	0.33320
2927.74614	0.33062
2925.81746	0.32970
2923.88877	0.32995
2921.96008	0.33101
2920.03140	0.33229
2918.10271	0.33249
2916.17402	0.33125
2914.24534	0.32970
2912.31665	0.33039
2910.38796	0.33347
2908.45928	0.33600
2906.53059	0.33697
2904.60190	0.33758
2902.67322	0.33755
2900.74453	0.33496
2898.81584	0.33020
2896.88716	0.32628
2894.95847	0.32625
2893.02979	0.32948
2891.10110	0.33039
2889.17241	0.32873
2887.24373	0.32947
2885.31504	0.33102
2883.38635	0.33037
2881.45767	0.32982
2879.52898	0.33029
2877.60029	0.33027
2875.67161	0.33036
2873.74292	0.33074
2871.81423	0.33044
2869.88555	0.32981
2867.95686	0.32954
2866.02817	0.32980
2864.09949	0.33063
2862.17080	0.33207
2860.24211	0.33411
2858.31343	0.33686
2856.38474	0.33815
2854.45605	0.33611
2852.52737	0.33481
2850.59868	0.33569
2848.67000	0.33471
2846.74131	0.33185
2844.81262	0.32950
2842.88394	0.32816
2840.95525	0.32775
2839.02656	0.32779
2837.09788	0.32827
2835.16919	0.32964
2833.24050	0.33120
2831.31182	0.33235
2829.38313	0.33298
2827.45444	0.33164
2825.52576	0.32790
2823.59707	0.32419
2821.66838	0.32343
2819.73970	0.32562
2817.81101	0.32727
2815.88232	0.32726
2813.95364	0.32737
2812.02495	0.32723
2810.09626	0.32751
2808.16758	0.32845
2806.23889	0.32744
2804.31021	0.32694
2802.38152	0.33013
2800.45283	0.33352
2798.52415	0.33395
2796.59546	0.33291
2794.66677	0.33250
2792.73809	0.33194
2790.80940	0.32889
2788.88071	0.32492
2786.95203	0.32564
2785.02334	0.33098
2783.09465	0.33492
2781.16597	0.33446
2779.23728	0.33109
2777.30859	0.32932
2775.37991	0.33037
2773.45122	0.32976
2771.52253	0.32608
2769.59385	0.32360
2767.66516	0.32469
2765.73647	0.32621
2763.80779	0.32672
2761.87910	0.32738
2759.95042	0.32734
2758.02173	0.32839
2756.09304	0.33114
2754.16436	0.33069
2752.23567	0.32726
2750.30698	0.32649
2748.37830	0.32808
2746.44961	0.32925
2744.52092	0.33070
2742.59224	0.33128
2740.66355	0.33024
2738.73486	0.33015
2736.80618	0.33045
2734.87749	0.33045
2732.94880	0.33243
2731.02012	0.33520
2729.09143	0.33490
2727.16274	0.33195
2725.23406	0.32973
2723.30537	0.32848
2721.37668	0.32730
2719.44800	0.32686
2717.51931	0.32689
2715.59062	0.32607
2713.66194	0.32448
2711.73325	0.32470
2709.80457	0.32786
2707.87588	0.33093
2705.94719	0.33179
2704.01851	0.33108
2702.08982	0.32971
2700.16113	0.32991
2698.23245	0.33253
2696.30376	0.33329
2694.37507	0.33029
2692.44639	0.32844
2690.51770	0.32987
2688.58901	0.33164
2686.66033	0.33280
2684.73164	0.33328
2682.80295	0.33166
2680.87427	0.32970
2678.94558	0.33040
2677.01689	0.33261
2675.08821	0.33337
2673.15952	0.33255
2671.23083	0.33227
2669.30215	0.33258
2667.37346	0.33185
2665.44478	0.33023
2663.51609	0.32923
2661.58740	0.33078
2659.65872	0.33495
2657.73003	0.33740
2655.80134	0.33504
2653.87266	0.33124
2651.94397	0.32897
2650.01528	0.32675
2648.08660	0.32487
2646.15791	0.32453
2644.22922	0.32418
2642.30054	0.32359
2640.37185	0.32424
2638.44316	0.32646
2636.51448	0.32879
2634.58579	0.32939
2632.65710	0.32889
2630.72842	0.32812
2628.79973	0.32705
2626.87104	0.32650
2624.94236	0.32668
2623.01367	0.32833
2621.08499	0.33063
2619.15630	0.33085
2617.22761	0.33141
2615.29893	0.33376
2613.37024	0.33333
2611.44155	0.33043
2609.51287	0.32895
2607.58418	0.32842
2605.65549	0.32794
2603.72681	0.32767
2601.79812	0.32715
2599.86943	0.32707
2597.94075	0.32891
2596.01206	0.33131
2594.08337	0.33076
2592.15469	0.32893
2590.22600	0.32933
2588.29731	0.33081
2586.36863	0.33218
2584.43994	0.33270
2582.51125	0.33130
2580.58257	0.32955
2578.65388	0.32955
2576.72520	0.33012
2574.79651	0.32989
2572.86782	0.33051
2570.93914	0.33125
2569.01045	0.32989
2567.08176	0.32913
2565.15308	0.33063
2563.22439	0.32999
2561.29570	0.32599
2559.36702	0.32459
2557.43833	0.32852
2555.50964	0.33296
2553.58096	0.33321
2551.65227	0.33087
2549.72358	0.33021
2547.79490	0.33124
2545.86621	0.33101
2543.93752	0.32772
2542.00884	0.32363
2540.08015	0.32322
2538.15146	0.32564
2536.22278	0.32706
2534.29409	0.32717
2532.36541	0.32764
2530.43672	0.32947
2528.50803	0.33146
2526.57935	0.33168
2524.65066	0.33139
2522.72197	0.33217
2520.79329	0.33306
2518.86460	0.33299
2516.93591	0.33081
2515.00723	0.32822
2513.07854	0.32844
2511.14985	0.32919
2509.22117	0.32869
2507.29248	0.32946
2505.36379	0.33191
2503.43511	0.33423
2501.50642	0.33443
2499.57773	0.33282
2497.64905	0.33219
2495.72036	0.33261
2493.79167	0.33191
2491.86299	0.32966
2489.93430	0.32810
2488.00562	0.32897
2486.07693	0.32974
2484.14824	0.32867
2482.21956	0.32833
2480.29087	0.32943
2478.36218	0.32997
2476.43350	0.32989
2474.50481	0.33001
2472.57612	0.32965
2470.64744	0.32895
2468.71875	0.32961
2466.79006	0.33108
2464.86138	0.33110
2462.93269	0.32953
2461.00400	0.32781
2459.07532	0.32731
2457.14663	0.32883
2455.21794	0.33119
2453.28926	0.33232
2451.36057	0.33111
2449.43188	0.32851
2447.50320	0.32780
2445.57451	0.32922
2443.64583	0.32993
2441.71714	0.33044
2439.78845	0.33144
2437.85977	0.33120
2435.93108	0.32985
2434.00239	0.32796
2432.07371	0.32561
2430.14502	0.32491
2428.21633	0.32669
2426.28765	0.32843
2424.35896	0.32865
2422.43027	0.32849
2420.50159	0.32843
2418.57290	0.32777
2416.64421	0.32809
2414.71553	0.33059
2412.78684	0.33190
2410.85815	0.33018
2408.92947	0.32890
2407.00078	0.33050
2405.07209	0.33298
2403.14341	0.33314
2401.21472	0.33111
2399.28604	0.33003
2397.35735	0.33076
2395.42866	0.33151
2393.49998	0.33148
2391.57129	0.33104
2389.64260	0.32993
2387.71392	0.32749
2385.78523	0.32516
2383.85654	0.32527
2381.92786	0.32751
2379.99917	0.32901
2378.07048	0.32780
2376.14180	0.32607
2374.21311	0.32673
2372.28442	0.32884
2370.35574	0.32967
2368.42705	0.32974
2366.49836	0.33118
2364.56968	0.33245
2362.64099	0.33168
2360.71230	0.33038
2358.78362	0.33053
2356.85493	0.33210
2354.92625	0.33330
2352.99756	0.33283
2351.06887	0.33142
2349.14019	0.33053
2347.21150	0.32994
2345.28281	0.32853
2343.35413	0.32685
2341.42544	0.32699
2339.49675	0.32916
2337.56807	0.33045
2335.63938	0.33015
2333.71069	0.33082
2331.78201	0.33273
2329.85332	0.33450
2327.92463	0.33516
2325.99595	0.33416
2324.06726	0.33297
2322.13857	0.33273
2320.20989	0.33220
2318.28120	0.33085
2316.35251	0.32892
2314.42383	0.32670
2312.49514	0.32514
2310.56646	0.32507
2308.63777	0.32668
2306.70908	0.32845
2304.78040	0.32862
2302.85171	0.32821
2300.92302	0.32862
2298.99434	0.32874
2297.06565	0.32768
2295.13696	0.32678
2293.20828	0.32659
2291.27959	0.32644
2289.35090	0.32703
2287.42222	0.32848
2285.49353	0.32902
2283.56484	0.32793
2281.63616	0.32713
2279.70747	0.32804
2277.77878	0.32949
2275.85010	0.33033
2273.92141	0.32950
2271.99272	0.32684
2270.06404	0.32597
2268.13535	0.32848
2266.20667	0.33084
2264.27798	0.33137
2262.34929	0.33178
2260.42061	0.33220
2258.49192	0.33154
2256.56323	0.33004
2254.63455	0.32857
2252.70586	0.32792
2250.77717	0.32835
2248.84849	0.32929
2246.91980	0.33041
2244.99111	0.33190
2243.06243	0.33331
2241.13374	0.33258
2239.20505	0.32970
2237.27637	0.32759
2235.34768	0.32704
2233.41899	0.32709
2231.49031	0.32781
2229.56162	0.32906
2227.63293	0.32917
2225.70425	0.32802
2223.77556	0.32773
2221.84687	0.32777
2219.91819	0.32676
2217.98950	0.32689
2216.06082	0.32910
2214.13213	0.33097
2212.20344	0.33171
2210.27476	0.33163
2208.34607	0.33052
2206.41738	0.32959
2204.48870	0.33040
2202.56001	0.33199
2200.63132	0.33195
2198.70264	0.33015
2196.77395	0.32831
2194.84526	0.32759
2192.91658	0.32802
2190.98789	0.32898
2189.05920	0.32946
2187.13052	0.32864
2185.20183	0.32798
2183.27314	0.32849
2181.34446	0.32950
2179.41577	0.33062
2177.48708	0.33061
2175.55840	0.32995
2173.62971	0.32978
2171.70103	0.32908
2169.77234	0.32774
2167.84365	0.32677
2165.91497	0.32728
2163.98628	0.33041
2162.05759	0.33385
2160.12891	0.33355
2158.20022	0.33092
2156.27153	0.32973
2154.34285	0.32956
2152.41416	0.32898
2150.48547	0.32760
2148.55679	0.32563
2146.62810	0.32507
2144.69941	0.32709
2142.77073	0.32899
2140.84204	0.32864
2138.91335	0.32779
2136.98467	0.32738
2135.05598	0.32751
2133.12729	0.32929
2131.19861	0.33119
2129.26992	0.33084
2127.34124	0.32916
2125.41255	0.32757
2123.48386	0.32671
2121.55518	0.32724
2119.62649	0.32760
2117.69780	0.32678
2115.76912	0.32663
2113.84043	0.32685
2111.91174	0.32608
2109.98306	0.32597
2108.05437	0.32747
2106.12568	0.32827
2104.19700	0.32738
2102.26831	0.32694
2100.33962	0.32872
2098.41094	0.33127
2096.48225	0.33159
2094.55356	0.32991
2092.62488	0.32891
2090.69619	0.32952
2088.76750	0.33057
2086.83882	0.33109
2084.91013	0.33092
2082.98145	0.33006
2081.05276	0.32877
2079.12407	0.32773
2077.19539	0.32843
2075.26670	0.33057
2073.33801	0.33182
2071.40933	0.33110
2069.48064	0.32867
2067.55195	0.32737
2065.62327	0.32898
2063.69458	0.32977
2061.76589	0.32759
2059.83721	0.32556
2057.90852	0.32633
2055.97983	0.32845
2054.05115	0.32915
2052.12246	0.32888
2050.19377	0.32971
2048.26509	0.33091
2046.33640	0.33057
2044.40771	0.32959
2042.47903	0.32934
2040.55034	0.32917
2038.62166	0.32894
2036.69297	0.32902
2034.76428	0.32802
2032.83560	0.32528
2030.90691	0.32412
2028.97822	0.32618
2027.04954	0.32738
2025.12085	0.32572
2023.19216	0.32415
2021.26348	0.32436
2019.33479	0.32548
2017.40610	0.32659
2015.47742	0.32737
2013.54873	0.32716
2011.62004	0.32540
2009.69136	0.32338
2007.76267	0.32337
2005.83398	0.32579
2003.90530	0.32900
2001.97661	0.33134
2000.04792	0.33183
1998.11924	0.33113
1996.19055	0.33102
1994.26187	0.33074
1992.33318	0.32930
1990.40449	0.32817
1988.47581	0.32803
1986.54712	0.32760
1984.61843	0.32638
1982.68975	0.32664
1980.76106	0.32857
1978.83237	0.32924
1976.90369	0.32909
1974.97500	0.32935
1973.04631	0.32823
1971.11763	0.32629
1969.18894	0.32694
1967.26025	0.32953
1965.33157	0.32992
1963.40288	0.32807
1961.47419	0.32727
1959.54551	0.32798
1957.61682	0.32840
1955.68813	0.32838
1953.75945	0.32805
1951.83076	0.32666
1949.90208	0.32534
1947.97339	0.32520
1946.04470	0.32585
1944.11602	0.32713
1942.18733	0.32825
1940.25864	0.32807
1938.32996	0.32679
1936.40127	0.32605
1934.47258	0.32642
1932.54390	0.32651
1930.61521	0.32656
1928.68652	0.32727
1926.75784	0.32802
1924.82915	0.32879
1922.90046	0.32888
1920.97178	0.32825
1919.04309	0.32816
1917.11440	0.32773
1915.18572	0.32712
1913.25703	0.32809
1911.32834	0.32914
1909.39966	0.32910
1907.47097	0.32915
1905.54229	0.32902
1903.61360	0.32769
1901.68491	0.32510
1899.75623	0.32268
1897.82754	0.32242
1895.89885	0.32418
1893.97017	0.32636
1892.04148	0.32789
1890.11279	0.32835
1888.18411	0.32774
1886.25542	0.32778
1884.32673	0.32914
1882.39805	0.32955
1880.46936	0.32889
1878.54067	0.32867
1876.61199	0.32879
1874.68330	0.32876
1872.75461	0.32893
1870.82593	0.32971
1868.89724	0.32950
1866.96855	0.32688
1865.03987	0.32433
1863.11118	0.32463
1861.18250	0.32656
1859.25381	0.32791
1857.32512	0.32850
1855.39644	0.32889
1853.46775	0.32960
1851.53906	0.33027
1849.61038	0.33051
1847.68169	0.33134
1845.75300	0.33280
1843.82432	0.33287
1841.89563	0.33046
1839.96694	0.32741
1838.03826	0.32611
1836.10957	0.32703
1834.18088	0.32900
1832.25220	0.33011
1830.32351	0.32914
1828.39482	0.32776
1826.46614	0.32845
1824.53745	0.33007
1822.60876	0.33087
1820.68008	0.33106
1818.75139	0.32971
1816.82271	0.32734
1814.89402	0.32684
1812.96533	0.32828
1811.03665	0.32959
1809.10796	0.33018
1807.17927	0.33065
1805.25059	0.33089
1803.32190	0.33070
1801.39321	0.33043
1799.46453	0.33007
1797.53584	0.32919
1795.60715	0.32808
1793.67847	0.32823
1791.74978	0.32946
1789.82109	0.32918
1787.89241	0.32673
1785.96372	0.32472
1784.03503	0.32539
1782.10635	0.32777
1780.17766	0.33018
1778.24897	0.33190
1776.32029	0.33181
1774.39160	0.33035
1772.46292	0.32913
1770.53423	0.32851
1768.60554	0.32820
1766.67686	0.32811
1764.74817	0.32882
1762.81948	0.33057
1760.89080	0.33197
1758.96211	0.33179
1757.03342	0.33003
1755.10474	0.32829
1753.17605	0.32871
1751.24736	0.32977
1749.31868	0.32902
1747.38999	0.32734
1745.46130	0.32561
1743.53262	0.32516
1741.60393	0.32776
1739.67524	0.33131
1737.74656	0.33237
1735.81787	0.33110
1733.88918	0.33047
1731.96050	0.33167
1730.03181	0.33172
1728.10312	0.32932
1726.17444	0.32768
1724.24575	0.32839
1722.31707	0.32894
1720.38838	0.32709
1718.45969	0.32484
1716.53101	0.32537
1714.60232	0.32694
1712.67363	0.32722
1710.74495	0.32806
1708.81626	0.32904
1706.88757	0.32846
1704.95889	0.32907
1703.03020	0.33160
1701.10151	0.33323
1699.17283	0.33315
1697.24414	0.33215
1695.31545	0.33040
1693.38677	0.32838
1691.45808	0.32793
1689.52939	0.32930
1687.60071	0.33129
1685.67202	0.33252
1683.74333	0.33202
1681.81465	0.33146
1679.88596	0.33140
1677.95728	0.33110
1676.02859	0.33143
1674.09990	0.33298
1672.17122	0.33444
1670.24253	0.33349
1668.31384	0.33018
1666.38516	0.32703
1664.45647	0.32624
1662.52778	0.32756
1660.59910	0.32808
1658.67041	0.32854
1656.74172	0.33243
1654.81304	0.33705
1652.88435	0.33673
1650.95566	0.33320
1649.02698	0.33147
1647.09829	0.33149
1645.16960	0.33091
1643.24092	0.33008
1641.31223	0.33048
1639.38354	0.33143
1637.45486	0.33191
1635.52617	0.33136
1633.59749	0.33052
1631.66880	0.33073
1629.74011	0.32976
1627.81143	0.32743
1625.88274	0.32823
1623.95405	0.33170
1622.02537	0.33270
1620.09668	0.33111
1618.16799	0.33046
1616.23931	0.33026
1614.31062	0.32914
1612.38193	0.33010
1610.45325	0.33288
1608.52456	0.33256
1606.59587	0.32929
1604.66719	0.32709
1602.73850	0.32742
1600.80981	0.32901
1598.88113	0.33001
1596.95244	0.32997
1595.02375	0.32883
1593.09507	0.32756
1591.16638	0.32832
1589.23770	0.32984
1587.30901	0.32909
1585.38032	0.32747
1583.45164	0.32692
1581.52295	0.32623
1579.59426	0.32610
1577.66558	0.32794
1575.73689	0.32968
1573.80820	0.32956
1571.87952	0.32827
1569.95083	0.32777
1568.02214	0.32998
1566.09346	0.33270
1564.16477	0.33251
1562.23608	0.33163
1560.30740	0.33294
1558.37871	0.33486
1556.45002	0.33503
1554.52134	0.33341
1552.59265	0.33195
1550.66396	0.33092
1548.73528	0.32866
1546.80659	0.32606
1544.87791	0.32616
1542.94922	0.32934
1541.02053	0.33179
1539.09185	0.33070
1537.16316	0.32836
1535.23447	0.32844
1533.30579	0.33100
1531.37710	0.33267
1529.44841	0.33172
1527.51973	0.33006
1525.59104	0.32925
1523.66235	0.32963
1521.73367	0.33073
1519.80498	0.32996
1517.87629	0.32743
1515.94761	0.32622
1514.01892	0.32676
1512.09023	0.32838
1510.16155	0.33062
1508.23286	0.33182
1506.30417	0.33040
1504.37549	0.32804
1502.44680	0.32741
1500.51812	0.32725
1498.58943	0.32610
1496.66074	0.32484
1494.73206	0.32520
1492.80337	0.32777
1490.87468	0.32985
1488.94600	0.32869
1487.01731	0.32540
1485.08862	0.32431
1483.15994	0.32675
1481.23125	0.32931
1479.30256	0.33005
1477.37388	0.32951
1475.44519	0.32927
1473.51650	0.33023
1471.58782	0.33096
1469.65913	0.33013
1467.73044	0.32805
1465.80176	0.32675
1463.87307	0.32730
1461.94438	0.32718
1460.01570	0.32505
1458.08701	0.32446
1456.15833	0.32703
1454.22964	0.32824
1452.30095	0.32731
1450.37227	0.32779
1448.44358	0.32951
1446.51489	0.33123
1444.58621	0.33191
1442.65752	0.33122
1440.72883	0.33091
1438.80015	0.33031
1436.87146	0.32963
1434.94277	0.33045
1433.01409	0.33010
1431.08540	0.32754
1429.15671	0.32560
1427.22803	0.32633
1425.29934	0.32848
1423.37065	0.32923
1421.44197	0.32911
1419.51328	0.32921
1417.58459	0.32926
1415.65591	0.32990
1413.72722	0.33051
1411.79854	0.32970
1409.86985	0.32825
1407.94116	0.32761
1406.01248	0.32803
1404.08379	0.32832
1402.15510	0.32704
1400.22642	0.32607
1398.29773	0.32728
1396.36904	0.32846
1394.44036	0.32781
1392.51167	0.32542
1390.58298	0.32302
1388.65430	0.32316
1386.72561	0.32503
1384.79692	0.32597
1382.86824	0.32567
1380.93955	0.32571
1379.01086	0.32613
1377.08218	0.32551
1375.15349	0.32406
1373.22480	0.32389
1371.29612	0.32537
1369.36743	0.32696
1367.43875	0.32842
1365.51006	0.32849
1363.58137	0.32646
1361.65269	0.32524
1359.72400	0.32476
1357.79531	0.32339
1355.86663	0.32362
1353.93794	0.32676
1352.00925	0.32920
1350.08057	0.32844
1348.15188	0.32767
1346.22319	0.32916
1344.29451	0.32988
1342.36582	0.32783
1340.43713	0.32561
1338.50845	0.32516
1336.57976	0.32497
1334.65107	0.32462
1332.72239	0.32574
1330.79370	0.32881
1328.86501	0.33205
1326.93633	0.33181
1325.00764	0.32851
1323.07896	0.32708
1321.15027	0.32822
1319.22158	0.32940
1317.29290	0.32998
1315.36421	0.32980
1313.43552	0.32842
1311.50684	0.32600
1309.57815	0.32378
1307.64946	0.32330
1305.72078	0.32442
1303.79209	0.32548
1301.86340	0.32534
1299.93472	0.32393
1298.00603	0.32166
1296.07734	0.32004
1294.14866	0.32039
1292.21997	0.32157
1290.29128	0.32330
1288.36260	0.32531
1286.43391	0.32551
1284.50522	0.32444
1282.57654	0.32404
1280.64785	0.32490
1278.71917	0.32729
1276.79048	0.33013
1274.86179	0.33026
1272.93311	0.32772
1271.00442	0.32720
1269.07573	0.32901
1267.14705	0.32946
1265.21836	0.32852
1263.28967	0.32742
1261.36099	0.32659
1259.43230	0.32691
1257.50361	0.32716
1255.57493	0.32689
1253.64624	0.32782
1251.71755	0.32750
1249.78887	0.32416
1247.86018	0.32200
1245.93149	0.32293
1244.00281	0.32406
1242.07412	0.32415
1240.14543	0.32480
1238.21675	0.32518
1236.28806	0.32351
1234.35937	0.32145
1232.43069	0.32044
1230.50200	0.32059
1228.57332	0.32282
1226.64463	0.32647
1224.71594	0.32833
1222.78726	0.32728
1220.85857	0.32527
1218.92988	0.32373
1217.00120	0.32266
1215.07251	0.32218
1213.14382	0.32260
1211.21514	0.32308
1209.28645	0.32379
1207.35776	0.32468
1205.42908	0.32303
1203.50039	0.32030
1201.57170	0.32108
1199.64302	0.32427
1197.71433	0.32597
1195.78564	0.32585
1193.85696	0.32581
1191.92827	0.32677
1189.99958	0.32718
1188.07090	0.32582
1186.14221	0.32489
1184.21353	0.32675
1182.28484	0.33014
1180.35615	0.33045
1178.42747	0.32664
1176.49878	0.32449
1174.57009	0.32582
1172.64141	0.32671
1170.71272	0.32615
1168.78403	0.32523
1166.85535	0.32444
1164.92666	0.32316
1162.99797	0.32064
1161.06929	0.31939
1159.14060	0.32206
1157.21191	0.32623
1155.28323	0.32858
1153.35454	0.32957
1151.42585	0.33013
1149.49717	0.32919
1147.56848	0.32614
1145.63979	0.32307
1143.71111	0.32177
1141.78242	0.32119
1139.85374	0.32220
1137.92505	0.32652
1135.99636	0.33109
1134.06768	0.33272
1132.13899	0.33224
1130.21030	0.33153
1128.28162	0.33140
1126.35293	0.32995
1124.42424	0.32531
1122.49556	0.32078
1120.56687	0.31986
1118.63818	0.32105
1116.70950	0.32237
1114.78081	0.32344
1112.85212	0.32329
1110.92344	0.32253
1108.99475	0.32284
1107.06606	0.32356
1105.13738	0.32501
1103.20869	0.32745
1101.28000	0.32906
1099.35132	0.33045
1097.42263	0.33190
1095.49395	0.33107
1093.56526	0.32863
1091.63657	0.32782
1089.70789	0.32867
1087.77920	0.33029
1085.85051	0.33209
1083.92183	0.33126
1081.99314	0.32797
1080.06445	0.32533
1078.13577	0.32437
1076.20708	0.32450
1074.27839	0.32472
1072.34971	0.32451
1070.42102	0.32408
1068.49233	0.32487
1066.56365	0.32684
1064.63496	0.32716
1062.70627	0.32611
1060.77759	0.32562
1058.84890	0.32470
1056.92021	0.32463
1054.99153	0.32720
1053.06284	0.32769
1051.13416	0.32447
1049.20547	0.32232
1047.27678	0.32192
1045.34810	0.32219
1043.41941	0.32407
1041.49072	0.32515
1039.56204	0.32315
1037.63335	0.32055
1035.70466	0.31976
1033.77598	0.32015
1031.84729	0.32004
1029.91860	0.32070
1027.98992	0.32286
1026.06123	0.32353
1024.13254	0.32367
1022.20386	0.32536
1020.27517	0.32600
1018.34648	0.32561
1016.41780	0.32657
1014.48911	0.32656
1012.56042	0.32474
1010.63174	0.32529
1008.70305	0.32739
1006.77437	0.32654
1004.84568	0.32397
1002.91699	0.32322
1000.98831	0.32264
999.05962	0.32079
997.13093	0.32180
995.20225	0.32609
993.27356	0.32862
991.34487	0.32645
989.41619	0.32171
987.48750	0.31929
985.55881	0.31906
983.63013	0.31754
981.70144	0.31609
979.77275	0.31618
977.84407	0.31697
975.91538	0.31958
973.98669	0.32274
972.05801	0.32341
970.12932	0.32343
968.20063	0.32538
966.27195	0.32794
964.34326	0.32818
962.41458	0.32475
960.48589	0.32003
958.55720	0.31749
956.62852	0.31705
954.69983	0.31714
952.77114	0.31849
950.84246	0.32183
948.91377	0.32365
946.98508	0.32070
945.05640	0.31764
943.12771	0.31915
941.19902	0.32155
939.27034	0.31989
937.34165	0.31648
935.41296	0.31715
933.48428	0.32050
931.55559	0.32122
929.62690	0.32100
927.69822	0.32177
925.76953	0.32063
923.84084	0.31882
921.91216	0.31899
919.98347	0.32027
918.05479	0.32165
916.12610	0.32132
914.19741	0.32002
912.26873	0.32086
910.34004	0.32297
908.41135	0.32382
906.48267	0.32260
904.55398	0.32034
902.62529	0.31855
900.69661	0.31805
898.76792	0.31870
896.83923	0.31947
894.91055	0.32002
892.98186	0.32098
891.05317	0.32228
889.12449	0.32201
887.19580	0.31958
885.26711	0.31752
883.33843	0.31758
881.40974	0.31798
879.48105	0.31571
877.55237	0.31347
875.62368	0.31584
873.69500	0.32019
871.76631	0.32169
869.83762	0.32032
867.90894	0.31921
865.98025	0.32045
864.05156	0.32209
862.12288	0.32057
860.19419	0.31609
858.26550	0.31285
856.33682	0.31171
854.40813	0.30969
852.47944	0.30981
850.55076	0.31525
848.62207	0.31899
846.69338	0.31682
844.76470	0.31443
842.83601	0.31553
840.90732	0.31840
838.97864	0.31987
837.04995	0.31793
835.12126	0.31445
833.19258	0.31229
831.26389	0.31168
829.33521	0.31294
827.40652	0.31508
825.47783	0.31404
823.54915	0.31203
821.62046	0.31455
819.69177	0.31667
817.76309	0.31483
815.83440	0.31526
813.90571	0.31788
811.97703	0.31633
810.04834	0.31159
808.11965	0.30930
806.19097	0.31071
804.26228	0.31198
802.33359	0.31162
800.40491	0.31237
798.47622	0.31218
796.54753	0.30808
794.61885	0.30501
792.69016	0.30575
790.76147	0.30663
788.83279	0.30620
786.90410	0.30506
784.97542	0.30330
783.04673	0.30230
781.11804	0.30263
779.18936	0.30231
777.26067	0.30074
775.33198	0.30044
773.40330	0.30086
771.47461	0.30016
769.54592	0.30181
767.61724	0.30547
765.68855	0.30509
763.75986	0.30136
761.83118	0.29832
759.90249	0.29534
757.97380	0.29175
756.04512	0.28823
754.11643	0.28584
752.18774	0.28703
750.25906	0.29001
748.33037	0.29092
746.40168	0.28969
744.47300	0.28635
742.54431	0.28331
740.61562	0.28164
738.68694	0.27789
736.75825	0.27671
734.82957	0.28092
732.90088	0.28324
730.97219	0.28521
729.04351	0.28928
727.11482	0.28925
725.18613	0.28710
723.25745	0.28731
721.32876	0.28804
719.40007	0.28834
717.47139	0.28846
715.54270	0.28868
713.61401	0.29055
711.68533	0.29181
709.75664	0.28574
707.82795	0.27735
705.89927	0.27591
703.97058	0.27722
702.04189	0.27637
700.11321	0.27353
698.18452	0.27052
696.25583	0.26927
694.32715	0.26972
692.39846	0.27322
690.46978	0.27784
688.54109	0.27982
686.61240	0.27878
684.68372	0.27385
682.75503	0.26993
680.82634	0.27311
678.89766	0.27632
676.96897	0.27660
675.04028	0.27936
673.11160	0.28094
671.18291	0.27969
669.25422	0.27907
667.32554	0.27915
665.39685	0.28175
663.46816	0.28546
661.53948	0.28542
659.61079	0.28203
657.68210	0.27937
655.75342	0.28223
653.82473	0.29108
651.89604	0.29699
649.96736	0.29292
648.03867	0.28264
646.10999	0.27311
644.18130	0.26886
642.25261	0.27346
640.32393	0.28504
638.39524	0.29025
636.46655	0.28434
634.53787	0.27982
632.60918	0.27862
630.68049	0.27369
628.75181	0.26983
626.82312	0.27300
624.89443	0.28054
622.96575	0.28528
621.03706	0.28168
619.10837	0.27402
617.17969	0.26863
615.25100	0.26718
613.32231	0.26877
611.39363	0.26932
609.46494	0.26394
607.53625	0.25224
605.60757	0.24307
603.67888	0.24181
601.75020	0.24396
599.82151	0.24788
597.89282	0.25390
595.96414	0.26127
594.03545	0.26753
592.10676	0.27192
590.17808	0.27738
588.24939	0.28274
586.32070	0.27628
584.39202	0.25165
582.46333	0.23289
580.53464	0.23427
578.60596	0.23233
576.67727	0.22737
574.74858	0.24531
572.81990	0.26996
570.89121	0.26739
568.96252	0.24556
567.03384	0.22819
565.10515	0.21369
563.17646	0.19920
561.24778	0.19995
559.31909	0.21415
557.39041	0.22385
555.46172	0.22897
553.53303	0.22995
551.60435	0.22189
549.67566	0.21790
547.74697	0.22889
545.81829	0.23355
543.88960	0.21568
541.96091	0.20224
540.03223	0.22174
538.10354	0.26653
536.17485	0.29161
534.24617	0.31095
532.31748	0.34342
530.38879	0.29299
528.46011	0.17925
526.53142	0.09567
524.60273	0.03667
522.67405	0.00101
520.74536	-0.00965
518.81667	-0.02193
516.88799	-0.01350
514.95930	0.08762
513.03062	0.26454
511.10193	0.27752
509.17324	0.16635
507.24456	0.18999
505.31587	0.29014
503.38718	0.29671
501.45850	0.11923
499.52981	-0.51486
497.60112	-1.12163
495.67244	0.05824
493.74375	-0.09250
491.81506	0.09995
489.88638	0.45822
487.95769	0.44149
486.02900	0.41433
484.10032	0.49466
482.17163	0.59098
480.24294	0.54583
478.31426	0.69084
476.38557	1.15058
474.45688	1.82463
472.52820	1.82463
470.59951	-0.34001
468.67083	-0.34001
466.74214	0.88026
464.81345	0.69640
462.88477	0.48491
460.95608	0.39731
459.02739	0.69334
457.09871	0.35148
455.17002	-0.04581
453.24133	0.27319
451.31265	0.67459
449.38396	0.61727
447.45527	0.21549
445.52659	-4.42972
443.59790	1.18645
441.66921	0.32881
439.74053	0.32881
437.81184	-0.51860
435.88315	1.48397
433.95447	4.83602
432.02578	0.91715
430.09709	0.69827
428.16841	0.58142
426.23972	0.27099
424.31104	0.07582
422.38235	0.61402
420.45366	0.61402
418.52498	4.13067
416.59629	1.34108
414.66760	0.41167
412.73892	-0.77163
410.81023	-0.65907
408.88154	-0.09552
406.95286	0.18107
405.02417	0.39149
403.09548	0.88464
401.16680	-0.78403
399.23811	-0.78403
