4000.04268	0.81765
3998.11402	0.81765
3996.18536	0.81765
3994.25670	0.81762
3992.32804	0.81757
3990.39938	0.81751
3988.47072	0.81755
3986.54206	0.81774
3984.61340	0.81785
3982.68474	0.81770
3980.75607	0.81748
3978.82741	0.81742
3976.89875	0.81749
3974.97009	0.81753
3973.04143	0.81752
3971.11277	0.81756
3969.18411	0.81759
3967.25545	0.81751
3965.32679	0.81742
3963.39813	0.81733
3961.46947	0.81724
3959.54080	0.81716
3957.61214	0.81715
3955.68348	0.81723
3953.75482	0.81732
3951.82616	0.81732
3949.89750	0.81727
3947.96884	0.81721
3946.04018	0.81723
3944.11152	0.81732
3942.18286	0.81719
3940.25420	0.81694
3938.32553	0.81690
3936.39687	0.81714
3934.46821	0.81738
3932.53955	0.81737
3930.61089	0.81717
3928.68223	0.81704
3926.75357	0.81712
3924.82491	0.81712
3922.89625	0.81694
3920.96759	0.81687
3919.03893	0.81693
3917.11026	0.81684
3915.18160	0.81662
3913.25294	0.81645
3911.32428	0.81641
3909.39562	0.81656
3907.46696	0.81693
3905.53830	0.81725
3903.60964	0.81719
3901.68098	0.81693
3899.75232	0.81671
3897.82366	0.81652
3895.89500	0.81655
3893.96633	0.81678
3892.03767	0.81673
3890.10901	0.81642
3888.18035	0.81652
3886.25169	0.81695
3884.32303	0.81716
3882.39437	0.81707
3880.46571	0.81668
3878.53705	0.81627
3876.60839	0.81634
3874.67973	0.81670
3872.75106	0.81681
3870.82240	0.81656
3868.89374	0.81631
3866.96508	0.81639
3865.03642	0.81654
3863.10776	0.81635
3861.17910	0.81604
3859.25044	0.81603
3857.32178	0.81597
3855.39312	0.81525
3853.46446	0.81483
3851.53579	0.81547
3849.60713	0.81586
3847.67847	0.81609
3845.74981	0.81645
3843.82115	0.81668
3841.89249	0.81678
3839.96383	0.81691
3838.03517	0.81707
3836.10651	0.81704
3834.17785	0.81655
3832.24919	0.81592
3830.32052	0.81566
3828.39186	0.81572
3826.46320	0.81576
3824.53454	0.81593
3822.60588	0.81641
3820.67722	0.81670
3818.74856	0.81638
3816.81990	0.81571
3814.89124	0.81500
3812.96258	0.81459
3811.03392	0.81453
3809.10526	0.81471
3807.17659	0.81494
3805.24793	0.81527
3803.31927	0.81550
3801.39061	0.81531
3799.46195	0.81515
3797.53329	0.81505
3795.60463	0.81463
3793.67597	0.81424
3791.74731	0.81416
3789.81865	0.81417
3787.88999	0.81427
3785.96132	0.81443
3784.03266	0.81445
3782.10400	0.81471
3780.17534	0.81508
3778.24668	0.81469
3776.31802	0.81394
3774.38936	0.81378
3772.46070	0.81415
3770.53204	0.81444
3768.60338	0.81436
3766.67472	0.81416
3764.74605	0.81399
3762.81739	0.81404
3760.88873	0.81438
3758.96007	0.81460
3757.03141	0.81458
3755.10275	0.81451
3753.17409	0.81432
3751.24543	0.81398
3749.31677	0.81391
3747.38811	0.81363
3745.45945	0.81276
3743.53078	0.81298
3741.60212	0.81460
3739.67346	0.81602
3737.74480	0.81666
3735.81614	0.81636
3733.88748	0.81544
3731.95882	0.81449
3730.03016	0.81398
3728.10150	0.81392
3726.17284	0.81408
3724.24418	0.81426
3722.31552	0.81416
3720.38685	0.81381
3718.45819	0.81352
3716.52953	0.81341
3714.60087	0.81353
3712.67221	0.81383
3710.74355	0.81391
3708.81489	0.81350
3706.88623	0.81305
3704.95757	0.81292
3703.02891	0.81290
3701.10025	0.81267
3699.17158	0.81249
3697.24292	0.81267
3695.31426	0.81306
3693.38560	0.81371
3691.45694	0.81483
3689.52828	0.81546
3687.59962	0.81445
3685.67096	0.81310
3683.74230	0.81247
3681.81364	0.81250
3679.88498	0.81288
3677.95631	0.81312
3676.02765	0.81305
3674.09899	0.81284
3672.17033	0.81249
3670.24167	0.81198
3668.31301	0.81157
3666.38435	0.81129
3664.45569	0.81128
3662.52703	0.81182
3660.59837	0.81244
3658.66971	0.81229
3656.74104	0.81137
3654.81238	0.81099
3652.88372	0.81179
3650.95506	0.81266
3649.02640	0.81189
3647.09774	0.81028
3645.16908	0.80922
3643.24042	0.80853
3641.31176	0.80801
3639.38310	0.80759
3637.45444	0.80728
3635.52578	0.80705
3633.59711	0.80673
3631.66845	0.80602
3629.73979	0.80494
3627.81113	0.80429
3625.88247	0.80422
3623.95381	0.80427
3622.02515	0.80429
3620.09649	0.80390
3618.16783	0.80322
3616.23917	0.80276
3614.31051	0.80212
3612.38184	0.80108
3610.45318	0.80029
3608.52452	0.80016
3606.59586	0.80041
3604.66720	0.80066
3602.73854	0.80095
3600.80988	0.80120
3598.88122	0.80102
3596.95256	0.80047
3595.02390	0.80013
3593.09524	0.80008
3591.16657	0.80012
3589.23791	0.80071
3587.30925	0.80202
3585.38059	0.80273
3583.45193	0.80236
3581.52327	0.80165
3579.59461	0.80111
3577.66595	0.80090
3575.73729	0.80102
3573.80863	0.80144
3571.87997	0.80219
3569.95130	0.80300
3568.02264	0.80337
3566.09398	0.80338
3564.16532	0.80357
3562.23666	0.80388
3560.30800	0.80380
3558.37934	0.80343
3556.45068	0.80333
3554.52202	0.80371
3552.59336	0.80417
3550.66470	0.80435
3548.73604	0.80491
3546.80737	0.80615
3544.87871	0.80663
3542.95005	0.80556
3541.02139	0.80409
3539.09273	0.80352
3537.16407	0.80360
3535.23541	0.80306
3533.30675	0.80205
3531.37809	0.80155
3529.44943	0.80151
3527.52077	0.80178
3525.59210	0.80244
3523.66344	0.80255
3521.73478	0.80150
3519.80612	0.80043
3517.87746	0.80020
3515.94880	0.80059
3514.02014	0.80086
3512.09148	0.80044
3510.16282	0.79983
3508.23416	0.79975
3506.30550	0.80054
3504.37683	0.80194
3502.44817	0.80258
3500.51951	0.80221
3498.59085	0.80205
3496.66219	0.80207
3494.73353	0.80173
3492.80487	0.80132
3490.87621	0.80132
3488.94755	0.80181
3487.01889	0.80216
3485.09023	0.80200
3483.16156	0.80226
3481.23290	0.80321
3479.30424	0.80345
3477.37558	0.80266
3475.44692	0.80205
3473.51826	0.80239
3471.58960	0.80392
3469.66094	0.80574
3467.73228	0.80603
3465.80362	0.80464
3463.87496	0.80338
3461.94630	0.80326
3460.01763	0.80328
3458.08897	0.80265
3456.16031	0.80201
3454.23165	0.80182
3452.30299	0.80189
3450.37433	0.80216
3448.44567	0.80253
3446.51701	0.80255
3444.58835	0.80226
3442.65969	0.80217
3440.73103	0.80280
3438.80236	0.80435
3436.87370	0.80583
3434.94504	0.80593
3433.01638	0.80517
3431.08772	0.80472
3429.15906	0.80422
3427.23040	0.80315
3425.30174	0.80221
3423.37308	0.80201
3421.44442	0.80220
3419.51576	0.80208
3417.58709	0.80187
3415.65843	0.80236
3413.72977	0.80318
3411.80111	0.80350
3409.87245	0.80330
3407.94379	0.80279
3406.01513	0.80262
3404.08647	0.80397
3402.15781	0.80603
3400.22915	0.80630
3398.30049	0.80461
3396.37182	0.80348
3394.44316	0.80424
3392.51450	0.80519
3390.58584	0.80435
3388.65718	0.80241
3386.72852	0.80116
3384.79986	0.80086
3382.87120	0.80111
3380.94254	0.80154
3379.01388	0.80181
3377.08522	0.80175
3375.15656	0.80155
3373.22789	0.80219
3371.29923	0.80417
3369.37057	0.80577
3367.44191	0.80526
3365.51325	0.80333
3363.58459	0.80194
3361.65593	0.80163
3359.72727	0.80133
3357.79861	0.80062
3355.86995	0.80034
3353.94129	0.80126
3352.01262	0.80272
3350.08396	0.80274
3348.15530	0.80132
3346.22664	0.80063
3344.29798	0.80118
3342.36932	0.80187
3340.44066	0.80247
3338.51200	0.80254
3336.58334	0.80140
3334.65468	0.79994
3332.72602	0.79917
3330.79735	0.79903
3328.86869	0.79962
3326.94003	0.80061
3325.01137	0.80065
3323.08271	0.79960
3321.15405	0.79867
3319.22539	0.79830
3317.29673	0.79817
3315.36807	0.79819
3313.43941	0.79857
3311.51075	0.79988
3309.58208	0.80205
3307.65342	0.80380
3305.72476	0.80358
3303.79610	0.80126
3301.86744	0.79878
3299.93878	0.79807
3298.01012	0.79904
3296.08146	0.80029
3294.15280	0.80088
3292.22414	0.80032
3290.29548	0.79857
3288.36682	0.79681
3286.43815	0.79600
3284.50949	0.79578
3282.58083	0.79569
3280.65217	0.79563
3278.72351	0.79584
3276.79485	0.79663
3274.86619	0.79782
3272.93753	0.79915
3271.00887	0.79953
3269.08021	0.79793
3267.15155	0.79574
3265.22288	0.79464
3263.29422	0.79448
3261.36556	0.79466
3259.43690	0.79519
3257.50824	0.79605
3255.57958	0.79632
3253.65092	0.79565
3251.72226	0.79530
3249.79360	0.79629
3247.86494	0.79758
3245.93628	0.79752
3244.00761	0.79647
3242.07895	0.79582
3240.15029	0.79578
3238.22163	0.79630
3236.29297	0.79786
3234.36431	0.79948
3232.43565	0.79926
3230.50699	0.79765
3228.57833	0.79658
3226.64967	0.79638
3224.72101	0.79656
3222.79234	0.79694
3220.86368	0.79746
3218.93502	0.79782
3217.00636	0.79793
3215.07770	0.79799
3213.14904	0.79801
3211.22038	0.79806
3209.29172	0.79833
3207.36306	0.79859
3205.43440	0.79866
3203.50574	0.79872
3201.57708	0.79890
3199.64841	0.79914
3197.71975	0.79941
3195.79109	0.79968
3193.86243	0.79996
3191.93377	0.80033
3190.00511	0.80066
3188.07645	0.80078
3186.14779	0.80083
3184.21913	0.80103
3182.29047	0.80134
3180.36181	0.80167
3178.43314	0.80193
3176.50448	0.80212
3174.57582	0.80226
3172.64716	0.80241
3170.71850	0.80262
3168.78984	0.80290
3166.86118	0.80316
3164.93252	0.80340
3163.00386	0.80370
3161.07520	0.80403
3159.14654	0.80440
3157.21787	0.80514
3155.28921	0.80665
3153.36055	0.80810
3151.43189	0.80804
3149.50323	0.80685
3147.57457	0.80603
3145.64591	0.80595
3143.71725	0.80651
3141.78859	0.80787
3139.85993	0.80909
3137.93127	0.80899
3136.00260	0.80813
3134.07394	0.80787
3132.14528	0.80844
3130.21662	0.80903
3128.28796	0.80906
3126.35930	0.80905
3124.43064	0.80992
3122.50198	0.81189
3120.57332	0.81404
3118.64466	0.81524
3116.71600	0.81515
3114.78734	0.81392
3112.85867	0.81275
3110.93001	0.81295
3109.00135	0.81356
3107.07269	0.81318
3105.14403	0.81253
3103.21537	0.81280
3101.28671	0.81362
3099.35805	0.81390
3097.42939	0.81356
3095.50073	0.81341
3093.57207	0.81404
3091.64340	0.81511
3089.71474	0.81582
3087.78608	0.81627
3085.85742	0.81698
3083.92876	0.81770
3082.00010	0.81829
3080.07144	0.81877
3078.14278	0.81840
3076.21412	0.81706
3074.28546	0.81589
3072.35680	0.81569
3070.42813	0.81640
3068.49947	0.81735
3066.57081	0.81754
3064.64215	0.81689
3062.71349	0.81620
3060.78483	0.81597
3058.85617	0.81634
3056.92751	0.81687
3054.99885	0.81711
3053.07019	0.81729
3051.14153	0.81741
3049.21286	0.81727
3047.28420	0.81749
3045.35554	0.81834
3043.42688	0.81898
3041.49822	0.81864
3039.56956	0.81763
3037.64090	0.81722
3035.71224	0.81777
3033.78358	0.81802
3031.85492	0.81746
3029.92626	0.81671
3027.99760	0.81635
3026.06893	0.81649
3024.14027	0.81661
3022.21161	0.81663
3020.28295	0.81704
3018.35429	0.81779
3016.42563	0.81865
3014.49697	0.81935
3012.56831	0.81925
3010.63965	0.81809
3008.71099	0.81664
3006.78233	0.81589
3004.85366	0.81581
3002.92500	0.81588
3000.99634	0.81616
2999.06768	0.81672
2997.13902	0.81704
2995.21036	0.81725
2993.28170	0.81751
2991.35304	0.81712
2989.42438	0.81625
2987.49572	0.81577
2985.56706	0.81596
2983.63839	0.81678
2981.70973	0.81772
2979.78107	0.81793
2977.85241	0.81756
2975.92375	0.81733
2973.99509	0.81703
2972.06643	0.81636
2970.13777	0.81570
2968.20911	0.81536
2966.28045	0.81529
2964.35179	0.81541
2962.42313	0.81541
2960.49446	0.81514
2958.56580	0.81487
2956.63714	0.81498
2954.70848	0.81563
2952.77982	0.81616
2950.85116	0.81621
2948.92250	0.81650
2946.99384	0.81714
2945.06518	0.81720
2943.13652	0.81633
2941.20786	0.81510
2939.27919	0.81426
2937.35053	0.81383
2935.42187	0.81352
2933.49321	0.81349
2931.56455	0.81373
2929.63589	0.81344
2927.70723	0.81228
2925.77857	0.81104
2923.84991	0.81024
2921.92125	0.80993
2919.99259	0.81023
2918.06392	0.81110
2916.13526	0.81237
2914.20660	0.81349
2912.27794	0.81380
2910.34928	0.81346
2908.42062	0.81318
2906.49196	0.81327
2904.56330	0.81348
2902.63464	0.81358
2900.70598	0.81375
2898.77732	0.81431
2896.84865	0.81489
2894.91999	0.81487
2892.99133	0.81446
2891.06267	0.81423
2889.13401	0.81425
2887.20535	0.81432
2885.27669	0.81440
2883.34803	0.81450
2881.41937	0.81462
2879.49071	0.81474
2877.56205	0.81512
2875.63339	0.81602
2873.70472	0.81660
2871.77606	0.81604
2869.84740	0.81511
2867.91874	0.81468
2865.99008	0.81453
2864.06142	0.81443
2862.13276	0.81447
2860.20410	0.81436
2858.27544	0.81375
2856.34678	0.81292
2854.41812	0.81219
2852.48945	0.81169
2850.56079	0.81172
2848.63213	0.81232
2846.70347	0.81290
2844.77481	0.81332
2842.84615	0.81410
2840.91749	0.81541
2838.98883	0.81635
2837.06017	0.81630
2835.13151	0.81580
2833.20285	0.81537
2831.27418	0.81504
2829.34552	0.81488
2827.41686	0.81489
2825.48820	0.81497
2823.55954	0.81502
2821.63088	0.81501
2819.70222	0.81499
2817.77356	0.81497
2815.84490	0.81497
2813.91624	0.81510
2811.98758	0.81541
2810.05891	0.81555
2808.13025	0.81531
2806.20159	0.81501
2804.27293	0.81496
2802.34427	0.81521
2800.41561	0.81573
2798.48695	0.81605
2796.55829	0.81584
2794.62963	0.81552
2792.70097	0.81565
2790.77231	0.81600
2788.84365	0.81596
2786.91498	0.81547
2784.98632	0.81503
2783.05766	0.81487
2781.12900	0.81485
2779.20034	0.81501
2777.27168	0.81545
2775.34302	0.81580
2773.41436	0.81563
2771.48570	0.81524
2769.55704	0.81510
2767.62838	0.81511
2765.69971	0.81506
2763.77105	0.81497
2761.84239	0.81490
2759.91373	0.81487
2757.98507	0.81486
2756.05641	0.81483
2754.12775	0.81481
2752.19909	0.81494
2750.27043	0.81526
2748.34177	0.81542
2746.41311	0.81519
2744.48444	0.81483
2742.55578	0.81465
2740.62712	0.81466
2738.69846	0.81473
2736.76980	0.81471
2734.84114	0.81461
2732.91248	0.81451
2730.98382	0.81451
2729.05516	0.81476
2727.12650	0.81510
2725.19784	0.81518
2723.26917	0.81501
2721.34051	0.81474
2719.41185	0.81445
2717.48319	0.81428
2715.55453	0.81425
2713.62587	0.81426
2711.69721	0.81430
2709.76855	0.81432
2707.83989	0.81427
2705.91123	0.81419
2703.98257	0.81413
2702.05391	0.81414
2700.12524	0.81419
2698.19658	0.81416
2696.26792	0.81406
2694.33926	0.81400
2692.41060	0.81401
2690.48194	0.81405
2688.55328	0.81404
2686.62462	0.81400
2684.69596	0.81403
2682.76730	0.81424
2680.83864	0.81451
2678.90997	0.81456
2676.98131	0.81440
2675.05265	0.81425
2673.12399	0.81412
2671.19533	0.81394
2669.26667	0.81380
2667.33801	0.81375
2665.40935	0.81375
2663.48069	0.81374
2661.55203	0.81371
2659.62337	0.81368
2657.69470	0.81367
2655.76604	0.81366
2653.83738	0.81362
2651.90872	0.81356
2649.98006	0.81354
2648.05140	0.81355
2646.12274	0.81354
2644.19408	0.81354
2642.26542	0.81354
2640.33676	0.81356
2638.40810	0.81356
2636.47943	0.81354
2634.55077	0.81353
2632.62211	0.81352
2630.69345	0.81350
2628.76479	0.81349
2626.83613	0.81349
2624.90747	0.81343
2622.97881	0.81333
2621.05015	0.81326
2619.12149	0.81326
2617.19283	0.81327
2615.26417	0.81323
2613.33550	0.81317
2611.40684	0.81312
2609.47818	0.81309
2607.54952	0.81310
2605.62086	0.81312
2603.69220	0.81312
2601.76354	0.81312
2599.83488	0.81313
2597.90622	0.81313
2595.97756	0.81310
2594.04890	0.81307
2592.12023	0.81308
2590.19157	0.81311
2588.26291	0.81306
2586.33425	0.81296
2584.40559	0.81295
2582.47693	0.81300
2580.54827	0.81302
2578.61961	0.81300
2576.69095	0.81298
2574.76229	0.81297
2572.83363	0.81294
2570.90496	0.81291
2568.97630	0.81293
2567.04764	0.81296
2565.11898	0.81297
2563.19032	0.81299
2561.26166	0.81302
2559.33300	0.81300
2557.40434	0.81294
2555.47568	0.81290
2553.54702	0.81289
2551.61836	0.81288
2549.68969	0.81288
2547.76103	0.81293
2545.83237	0.81299
2543.90371	0.81302
2541.97505	0.81300
2540.04639	0.81298
2538.11773	0.81296
2536.18907	0.81297
2534.26041	0.81303
2532.33175	0.81307
2530.40309	0.81310
2528.47443	0.81313
2526.54576	0.81313
2524.61710	0.81308
2522.68844	0.81304
2520.75978	0.81305
2518.83112	0.81308
2516.90246	0.81307
2514.97380	0.81306
2513.04514	0.81303
2511.11648	0.81301
2509.18782	0.81299
2507.25916	0.81295
2505.33049	0.81289
2503.40183	0.81285
2501.47317	0.81287
2499.54451	0.81290
2497.61585	0.81294
2495.68719	0.81296
2493.75853	0.81292
2491.82987	0.81289
2489.90121	0.81293
2487.97255	0.81298
2486.04389	0.81295
2484.11522	0.81293
2482.18656	0.81295
2480.25790	0.81295
2478.32924	0.81290
2476.40058	0.81286
2474.47192	0.81284
2472.54326	0.81285
2470.61460	0.81288
2468.68594	0.81290
2466.75728	0.81288
2464.82862	0.81282
2462.89995	0.81277
2460.97129	0.81277
2459.04263	0.81284
2457.11397	0.81291
2455.18531	0.81291
2453.25665	0.81286
2451.32799	0.81283
2449.39933	0.81285
2447.47067	0.81286
2445.54201	0.81286
2443.61335	0.81285
2441.68469	0.81283
2439.75602	0.81279
2437.82736	0.81278
2435.89870	0.81282
2433.97004	0.81284
2432.04138	0.81280
2430.11272	0.81282
2428.18406	0.81291
2426.25540	0.81295
2424.32674	0.81292
2422.39808	0.81286
2420.46942	0.81282
2418.54075	0.81284
2416.61209	0.81286
2414.68343	0.81284
2412.75477	0.81281
2410.82611	0.81281
2408.89745	0.81283
2406.96879	0.81282
2405.04013	0.81280
2403.11147	0.81280
2401.18281	0.81281
2399.25415	0.81282
2397.32548	0.81282
2395.39682	0.81280
2393.46816	0.81278
2391.53950	0.81276
2389.61084	0.81277
2387.68218	0.81283
2385.75352	0.81292
2383.82486	0.81305
2381.89620	0.81326
2379.96754	0.81349
2378.03888	0.81365
2376.11021	0.81373
2374.18155	0.81381
2372.25289	0.81378
2370.32423	0.81356
2368.39557	0.81323
2366.46691	0.81295
2364.53825	0.81276
2362.60959	0.81264
2360.68093	0.81269
2358.75227	0.81301
2356.82361	0.81354
2354.89495	0.81415
2352.96628	0.81476
2351.03762	0.81519
2349.10896	0.81538
2347.18030	0.81536
2345.25164	0.81515
2343.32298	0.81494
2341.39432	0.81483
2339.46566	0.81476
2337.53700	0.81469
2335.60834	0.81467
2333.67968	0.81464
2331.75101	0.81455
2329.82235	0.81447
2327.89369	0.81445
2325.96503	0.81434
2324.03637	0.81413
2322.10771	0.81390
2320.17905	0.81371
2318.25039	0.81360
2316.32173	0.81360
2314.39307	0.81369
2312.46441	0.81378
2310.53574	0.81375
2308.60708	0.81361
2306.67842	0.81346
2304.74976	0.81335
2302.82110	0.81323
2300.89244	0.81314
2298.96378	0.81310
2297.03512	0.81309
2295.10646	0.81307
2293.17780	0.81299
2291.24914	0.81288
2289.32047	0.81280
2287.39181	0.81273
2285.46315	0.81267
2283.53449	0.81264
2281.60583	0.81262
2279.67717	0.81263
2277.74851	0.81265
2275.81985	0.81268
2273.89119	0.81274
2271.96253	0.81279
2270.03387	0.81280
2268.10521	0.81275
2266.17654	0.81271
2264.24788	0.81267
2262.31922	0.81267
2260.39056	0.81265
2258.46190	0.81261
2256.53324	0.81258
2254.60458	0.81257
2252.67592	0.81255
2250.74726	0.81253
2248.81860	0.81253
2246.88994	0.81254
2244.96127	0.81253
2243.03261	0.81248
2241.10395	0.81242
2239.17529	0.81239
2237.24663	0.81241
2235.31797	0.81243
2233.38931	0.81239
2231.46065	0.81232
2229.53199	0.81224
2227.60333	0.81216
2225.67467	0.81208
2223.74600	0.81203
2221.81734	0.81201
2219.88868	0.81201
2217.96002	0.81199
2216.03136	0.81194
2214.10270	0.81187
2212.17404	0.81180
2210.24538	0.81171
2208.31672	0.81161
2206.38806	0.81157
2204.45940	0.81156
2202.53073	0.81156
2200.60207	0.81155
2198.67341	0.81153
2196.74475	0.81155
2194.81609	0.81161
2192.88743	0.81162
2190.95877	0.81154
2189.03011	0.81145
2187.10145	0.81142
2185.17279	0.81141
2183.24413	0.81138
2181.31547	0.81137
2179.38680	0.81135
2177.45814	0.81133
2175.52948	0.81136
2173.60082	0.81141
2171.67216	0.81139
2169.74350	0.81133
2167.81484	0.81130
2165.88618	0.81132
2163.95752	0.81133
2162.02886	0.81132
2160.10020	0.81130
2158.17153	0.81130
2156.24287	0.81132
2154.31421	0.81136
2152.38555	0.81140
2150.45689	0.81137
2148.52823	0.81131
2146.59957	0.81131
2144.67091	0.81133
2142.74225	0.81127
2140.81359	0.81123
2138.88493	0.81127
2136.95626	0.81133
2135.02760	0.81134
2133.09894	0.81133
2131.17028	0.81131
2129.24162	0.81127
2127.31296	0.81120
2125.38430	0.81112
2123.45564	0.81107
2121.52698	0.81108
2119.59832	0.81109
2117.66966	0.81111
2115.74099	0.81110
2113.81233	0.81109
2111.88367	0.81108
2109.95501	0.81107
2108.02635	0.81109
2106.09769	0.81110
2104.16903	0.81108
2102.24037	0.81103
2100.31171	0.81099
2098.38305	0.81099
2096.45439	0.81100
2094.52573	0.81100
2092.59706	0.81099
2090.66840	0.81099
2088.73974	0.81103
2086.81108	0.81108
2084.88242	0.81108
2082.95376	0.81102
2081.02510	0.81097
2079.09644	0.81094
2077.16778	0.81090
2075.23912	0.81087
2073.31046	0.81086
2071.38179	0.81088
2069.45313	0.81089
2067.52447	0.81089
2065.59581	0.81090
2063.66715	0.81087
2061.73849	0.81078
2059.80983	0.81070
2057.88117	0.81066
2055.95251	0.81066
2054.02385	0.81065
2052.09519	0.81063
2050.16652	0.81065
2048.23786	0.81067
2046.30920	0.81067
2044.38054	0.81066
2042.45188	0.81065
2040.52322	0.81060
2038.59456	0.81053
2036.66590	0.81049
2034.73724	0.81047
2032.80858	0.81047
2030.87992	0.81046
2028.95125	0.81040
2027.02259	0.81033
2025.09393	0.81027
2023.16527	0.81023
2021.23661	0.81026
2019.30795	0.81036
2017.37929	0.81037
2015.45063	0.81024
2013.52197	0.81013
2011.59331	0.81012
2009.66465	0.81010
2007.73599	0.81007
2005.80732	0.81007
2003.87866	0.81006
2001.95000	0.81000
2000.02134	0.80995
1998.09268	0.80995
1996.16402	0.81003
1994.23536	0.81023
1992.30670	0.81034
1990.37804	0.81020
1988.44938	0.80995
1986.52072	0.80980
1984.59205	0.80971
1982.66339	0.80963
1980.73473	0.80960
1978.80607	0.80962
1976.87741	0.80965
1974.94875	0.80963
1973.02009	0.80959
1971.09143	0.80964
1969.16277	0.80983
1967.23411	0.80990
1965.30545	0.80974
1963.37678	0.80958
1961.44812	0.80952
1959.51946	0.80945
1957.59080	0.80940
1955.66214	0.80941
1953.73348	0.80937
1951.80482	0.80932
1949.87616	0.80933
1947.94750	0.80943
1946.01884	0.80967
1944.09018	0.80997
1942.16151	0.80995
1940.23285	0.80955
1938.30419	0.80924
1936.37553	0.80917
1934.44687	0.80916
1932.51821	0.80912
1930.58955	0.80908
1928.66089	0.80909
1926.73223	0.80921
1924.80357	0.80948
1922.87491	0.80965
1920.94625	0.80964
1919.01758	0.80967
1917.08892	0.80954
1915.16026	0.80916
1913.23160	0.80899
1911.30294	0.80914
1909.37428	0.80923
1907.44562	0.80908
1905.51696	0.80887
1903.58830	0.80879
1901.65964	0.80876
1899.73098	0.80874
1897.80231	0.80882
1895.87365	0.80894
1893.94499	0.80894
1892.01633	0.80901
1890.08767	0.80917
1888.15901	0.80900
1886.23035	0.80868
1884.30169	0.80854
1882.37303	0.80848
1880.44437	0.80842
1878.51571	0.80838
1876.58704	0.80834
1874.65838	0.80834
1872.72972	0.80866
1870.80106	0.80952
1868.87240	0.81020
1866.94374	0.80974
1865.01508	0.80883
1863.08642	0.80834
1861.15776	0.80823
1859.22910	0.80819
1857.30044	0.80812
1855.37177	0.80802
1853.44311	0.80794
1851.51445	0.80798
1849.58579	0.80826
1847.65713	0.80884
1845.72847	0.80951
1843.79981	0.80951
1841.87115	0.80877
1839.94249	0.80825
1838.01383	0.80815
1836.08517	0.80807
1834.15651	0.80810
1832.22784	0.80874
1830.29918	0.80952
1828.37052	0.80948
1826.44186	0.80909
1824.51320	0.80866
1822.58454	0.80806
1820.65588	0.80766
1818.72722	0.80761
1816.79856	0.80762
1814.86990	0.80773
1812.94124	0.80810
1811.01257	0.80841
1809.08391	0.80824
1807.15525	0.80789
1805.22659	0.80783
1803.29793	0.80820
1801.36927	0.80870
1799.44061	0.80875
1797.51195	0.80856
1795.58329	0.80885
1793.65463	0.80955
1791.72597	0.80951
1789.79730	0.80847
1787.86864	0.80773
1785.93998	0.80766
1784.01132	0.80786
1782.08266	0.80812
1780.15400	0.80818
1778.22534	0.80806
1776.29668	0.80847
1774.36802	0.80970
1772.43936	0.81067
1770.51070	0.81011
1768.58203	0.80889
1766.65337	0.80803
1764.72471	0.80790
1762.79605	0.80830
1760.86739	0.80842
1758.93873	0.80822
1757.01007	0.80801
1755.08141	0.80780
1753.15275	0.80821
1751.22409	0.80934
1749.29543	0.80993
1747.36677	0.80939
1745.43810	0.80870
1743.50944	0.80848
1741.58078	0.80863
1739.65212	0.80864
1737.72346	0.80865
1735.79480	0.80946
1733.86614	0.81031
1731.93748	0.80959
1730.00882	0.80835
1728.08016	0.80742
1726.15150	0.80708
1724.22283	0.80724
1722.29417	0.80767
1720.36551	0.80895
1718.43685	0.81106
1716.50819	0.81167
1714.57953	0.81008
1712.65087	0.80851
1710.72221	0.80791
1708.79355	0.80838
1706.86489	0.80945
1704.93623	0.81005
1703.00756	0.81050
1701.07890	0.81170
1699.15024	0.81246
1697.22158	0.81173
1695.29292	0.80992
1693.36426	0.80820
1691.43560	0.80774
1689.50694	0.80818
1687.57828	0.80920
1685.64962	0.81111
1683.72096	0.81174
1681.79229	0.80970
1679.86363	0.80803
1677.93497	0.80778
1676.00631	0.80838
1674.07765	0.80877
1672.14899	0.80918
1670.22033	0.80957
1668.29167	0.80856
1666.36301	0.80730
1664.43435	0.80727
1662.50569	0.80742
1660.57703	0.80667
1658.64836	0.80625
1656.71970	0.80733
1654.79104	0.81006
1652.86238	0.81138
1650.93372	0.80993
1649.00506	0.80983
1647.07640	0.81014
1645.14774	0.80834
1643.21908	0.80638
1641.29042	0.80591
1639.36176	0.80692
1637.43309	0.80891
1635.50443	0.80938
1633.57577	0.80723
1631.64711	0.80574
1629.71845	0.80580
1627.78979	0.80636
1625.86113	0.80685
1623.93247	0.80719
1622.00381	0.80674
1620.07515	0.80640
1618.14649	0.80720
1616.21782	0.80747
1614.28916	0.80626
1612.36050	0.80546
1610.43184	0.80543
1608.50318	0.80527
1606.57452	0.80462
1604.64586	0.80386
1602.71720	0.80309
1600.78854	0.80215
1598.85988	0.80110
1596.93122	0.79999
1595.00255	0.79847
1593.07389	0.79620
1591.14523	0.79329
1589.21657	0.79005
1587.28791	0.78693
1585.35925	0.78445
1583.43059	0.78301
1581.50193	0.78288
1579.57327	0.78439
1577.64461	0.78758
1575.71595	0.79077
1573.78729	0.79237
1571.85862	0.79446
1569.92996	0.79748
1568.00130	0.79918
1566.07264	0.79981
1564.14398	0.80081
1562.21532	0.80288
1560.28666	0.80706
1558.35800	0.80941
1556.42934	0.80664
1554.50068	0.80423
1552.57202	0.80317
1550.64335	0.80276
1548.71469	0.80255
1546.78603	0.80297
1544.85737	0.80464
1542.92871	0.80726
1541.00005	0.80913
1539.07139	0.80714
1537.14273	0.80442
1535.21407	0.80404
1533.28541	0.80445
1531.35675	0.80398
1529.42808	0.80400
1527.49942	0.80517
1525.57076	0.80657
1523.64210	0.80806
1521.71344	0.80923
1519.78478	0.80911
1517.85612	0.80852
1515.92746	0.80757
1513.99880	0.80651
1512.07014	0.80652
1510.14148	0.80819
1508.21281	0.81093
1506.28415	0.81062
1504.35549	0.80706
1502.42683	0.80511
1500.49817	0.80515
1498.56951	0.80593
1496.64085	0.80570
1494.71219	0.80454
1492.78353	0.80438
1490.85487	0.80547
1488.92621	0.80587
1486.99755	0.80457
1485.06888	0.80322
1483.14022	0.80275
1481.21156	0.80276
1479.28290	0.80300
1477.35424	0.80383
1475.42558	0.80520
1473.49692	0.80595
1471.56826	0.80469
1469.63960	0.80281
1467.71094	0.80228
1465.78228	0.80278
1463.85361	0.80277
1461.92495	0.80270
1459.99629	0.80415
1458.06763	0.80630
1456.13897	0.80550
1454.21031	0.80306
1452.28165	0.80179
1450.35299	0.80165
1448.42433	0.80181
1446.49567	0.80141
1444.56701	0.80069
1442.63834	0.80027
1440.70968	0.80039
1438.78102	0.80115
1436.85236	0.80183
1434.92370	0.80129
1432.99504	0.80068
1431.06638	0.80072
1429.13772	0.80059
1427.20906	0.80024
1425.28040	0.80028
1423.35174	0.80057
1421.42307	0.80113
1419.49441	0.80184
1417.56575	0.80134
1415.63709	0.80010
1413.70843	0.79948
1411.77977	0.79937
1409.85111	0.79936
1407.92245	0.79949
1405.99379	0.79975
1404.06513	0.79970
1402.13647	0.79964
1400.20781	0.80014
1398.27914	0.80076
1396.35048	0.80095
1394.42182	0.80050
1392.49316	0.79967
1390.56450	0.79940
1388.63584	0.79987
1386.70718	0.80030
1384.77852	0.80009
1382.84986	0.79956
1380.92120	0.79905
1378.99254	0.79879
1377.06387	0.79899
1375.13521	0.79934
1373.20655	0.79910
1371.27789	0.79847
1369.34923	0.79810
1367.42057	0.79797
1365.49191	0.79811
1363.56325	0.79842
1361.63459	0.79824
1359.70593	0.79757
1357.77727	0.79706
1355.84860	0.79683
1353.91994	0.79668
1351.99128	0.79653
1350.06262	0.79645
1348.13396	0.79643
1346.20530	0.79643
1344.27664	0.79649
1342.34798	0.79677
1340.41932	0.79716
1338.49066	0.79715
1336.56200	0.79671
1334.63333	0.79638
1332.70467	0.79637
1330.77601	0.79647
1328.84735	0.79648
1326.91869	0.79643
1324.99003	0.79640
1323.06137	0.79643
1321.13271	0.79652
1319.20405	0.79659
1317.27539	0.79653
1315.34673	0.79643
1313.41807	0.79642
1311.48940	0.79641
1309.56074	0.79639
1307.63208	0.79641
1305.70342	0.79642
1303.77476	0.79639
1301.84610	0.79637
1299.91744	0.79640
1297.98878	0.79641
1296.06012	0.79634
1294.13146	0.79618
1292.20280	0.79604
1290.27413	0.79597
1288.34547	0.79591
1286.41681	0.79578
1284.48815	0.79561
1282.55949	0.79548
1280.63083	0.79537
1278.70217	0.79525
1276.77351	0.79514
1274.84485	0.79503
1272.91619	0.79493
1270.98753	0.79481
1269.05886	0.79465
1267.13020	0.79446
1265.20154	0.79429
1263.27288	0.79422
1261.34422	0.79429
1259.41556	0.79438
1257.48690	0.79441
1255.55824	0.79438
1253.62958	0.79427
1251.70092	0.79411
1249.77226	0.79391
1247.84359	0.79371
1245.91493	0.79349
1243.98627	0.79327
1242.05761	0.79308
1240.12895	0.79288
1238.20029	0.79263
1236.27163	0.79236
1234.34297	0.79212
1232.41431	0.79189
1230.48565	0.79165
1228.55699	0.79138
1226.62833	0.79108
1224.69966	0.79074
1222.77100	0.79039
1220.84234	0.79005
1218.91368	0.78977
1216.98502	0.78950
1215.05636	0.78917
1213.12770	0.78877
1211.19904	0.78832
1209.27038	0.78787
1207.34172	0.78745
1205.41306	0.78709
1203.48439	0.78672
1201.55573	0.78632
1199.62707	0.78592
1197.69841	0.78551
1195.76975	0.78509
1193.84109	0.78476
1191.91243	0.78454
1189.98377	0.78429
1188.05511	0.78395
1186.12645	0.78362
1184.19779	0.78336
1182.26912	0.78307
1180.34046	0.78263
1178.41180	0.78205
1176.48314	0.78145
1174.55448	0.78088
1172.62582	0.78029
1170.69716	0.77975
1168.76850	0.77934
1166.83984	0.77904
1164.91118	0.77879
1162.98252	0.77857
1161.05385	0.77835
1159.12519	0.77808
1157.19653	0.77785
1155.26787	0.77770
1153.33921	0.77748
1151.41055	0.77715
1149.48189	0.77679
1147.55323	0.77641
1145.62457	0.77602
1143.69591	0.77557
1141.76725	0.77510
1139.83859	0.77468
1137.90992	0.77435
1135.98126	0.77407
1134.05260	0.77381
1132.12394	0.77351
1130.19528	0.77316
1128.26662	0.77277
1126.33796	0.77236
1124.40930	0.77196
1122.48064	0.77164
1120.55198	0.77135
1118.62332	0.77102
1116.69465	0.77061
1114.76599	0.77017
1112.83733	0.76970
1110.90867	0.76924
1108.98001	0.76888
1107.05135	0.76856
1105.12269	0.76826
1103.19403	0.76800
1101.26537	0.76769
1099.33671	0.76728
1097.40805	0.76688
1095.47938	0.76649
1093.55072	0.76615
1091.62206	0.76591
1089.69340	0.76571
1087.76474	0.76548
1085.83608	0.76526
1083.90742	0.76513
1081.97876	0.76507
1080.05010	0.76498
1078.12144	0.76483
1076.19278	0.76471
1074.26411	0.76467
1072.33545	0.76466
1070.40679	0.76467
1068.47813	0.76468
1066.54947	0.76472
1064.62081	0.76477
1062.69215	0.76485
1060.76349	0.76500
1058.83483	0.76526
1056.90617	0.76556
1054.97751	0.76578
1053.04885	0.76597
1051.12018	0.76621
1049.19152	0.76648
1047.26286	0.76670
1045.33420	0.76685
1043.40554	0.76700
1041.47688	0.76722
1039.54822	0.76743
1037.61956	0.76759
1035.69090	0.76776
1033.76224	0.76786
1031.83358	0.76786
1029.90491	0.76788
1027.97625	0.76798
1026.04759	0.76802
1024.11893	0.76794
1022.19027	0.76785
1020.26161	0.76777
1018.33295	0.76772
1016.40429	0.76774
1014.47563	0.76782
1012.54697	0.76792
1010.61831	0.76791
1008.68964	0.76773
1006.76098	0.76749
1004.83232	0.76733
1002.90366	0.76722
1000.97500	0.76706
999.04634	0.76679
997.11768	0.76652
995.18902	0.76633
993.26036	0.76615
991.33170	0.76591
989.40304	0.76561
987.47438	0.76523
985.54571	0.76481
983.61705	0.76436
981.68839	0.76394
979.75973	0.76359
977.83107	0.76325
975.90241	0.76294
973.97375	0.76268
972.04509	0.76241
970.11643	0.76211
968.18777	0.76184
966.25911	0.76165
964.33044	0.76147
962.40178	0.76122
960.47312	0.76090
958.54446	0.76060
956.61580	0.76035
954.68714	0.76012
952.75848	0.75989
950.82982	0.75969
948.90116	0.75945
946.97250	0.75919
945.04384	0.75894
943.11517	0.75863
941.18651	0.75829
939.25785	0.75801
937.32919	0.75781
935.40053	0.75767
933.47187	0.75751
931.54321	0.75729
929.61455	0.75705
927.68589	0.75692
925.75723	0.75689
923.82857	0.75688
921.89990	0.75685
919.97124	0.75676
918.04258	0.75657
916.11392	0.75632
914.18526	0.75607
912.25660	0.75588
910.32794	0.75575
908.39928	0.75555
906.47062	0.75526
904.54196	0.75501
902.61330	0.75482
900.68464	0.75461
898.75597	0.75429
896.82731	0.75390
894.89865	0.75356
892.96999	0.75332
891.04133	0.75315
889.11267	0.75297
887.18401	0.75276
885.25535	0.75256
883.32669	0.75243
881.39803	0.75228
879.46937	0.75203
877.54070	0.75167
875.61204	0.75126
873.68338	0.75077
871.75472	0.75024
869.82606	0.74979
867.89740	0.74944
865.96874	0.74907
864.04008	0.74859
862.11142	0.74798
860.18276	0.74738
858.25410	0.74685
856.32543	0.74632
854.39677	0.74573
852.46811	0.74517
850.53945	0.74467
848.61079	0.74420
846.68213	0.74375
844.75347	0.74335
842.82481	0.74298
840.89615	0.74261
838.96749	0.74218
837.03883	0.74167
835.11016	0.74115
833.18150	0.74061
831.25284	0.73990
829.32418	0.73893
827.39552	0.73774
825.46686	0.73640
823.53820	0.73497
821.60954	0.73344
819.68088	0.73187
817.75222	0.73038
815.82356	0.72882
813.89490	0.72701
811.96623	0.72507
810.03757	0.72327
808.10891	0.72152
806.18025	0.71956
804.25159	0.71734
802.32293	0.71490
800.39427	0.71220
798.46561	0.70914
796.53695	0.70598
794.60829	0.70299
792.67963	0.70008
790.75096	0.69707
788.82230	0.69400
786.89364	0.69104
784.96498	0.68808
783.03632	0.68502
781.10766	0.68186
779.17900	0.67867
777.25034	0.67553
775.32168	0.67244
773.39302	0.66941
771.46436	0.66638
769.53569	0.66330
767.60703	0.66010
765.67837	0.65670
763.74971	0.65314
761.82105	0.64959
759.89239	0.64609
757.96373	0.64256
756.03507	0.63892
754.10641	0.63530
752.17775	0.63173
750.24909	0.62810
748.32042	0.62436
746.39176	0.62049
744.46310	0.61654
742.53444	0.61270
740.60578	0.60914
738.67712	0.60574
736.74846	0.60225
734.81980	0.59878
732.89114	0.59563
730.96248	0.59298
729.03382	0.59057
727.10516	0.58805
725.17649	0.58541
723.24783	0.58263
721.31917	0.57956
719.39051	0.57654
717.46185	0.57397
715.53319	0.57176
713.60453	0.56983
711.67587	0.56828
709.74721	0.56709
707.81855	0.56614
705.88989	0.56534
703.96122	0.56471
702.03256	0.56426
700.10390	0.56391
698.17524	0.56360
696.24658	0.56334
694.31792	0.56322
692.38926	0.56323
690.46060	0.56325
688.53194	0.56334
686.60328	0.56360
684.67462	0.56404
682.74595	0.56470
680.81729	0.56554
678.88863	0.56647
676.95997	0.56743
675.03131	0.56829
673.10265	0.56884
671.17399	0.56960
669.24533	0.57160
667.31667	0.57337
665.38801	0.57335
663.45935	0.57364
661.53068	0.57472
659.60202	0.57603
657.67336	0.57757
655.74470	0.57928
653.81604	0.58087
651.88738	0.58239
649.95872	0.58410
648.03006	0.58592
646.10140	0.58744
644.17274	0.58858
642.24408	0.58952
640.31542	0.59050
638.38675	0.59151
636.45809	0.59215
634.52943	0.59241
632.60077	0.59267
630.67211	0.59292
628.74345	0.59335
626.81479	0.59410
624.88613	0.59501
622.95747	0.59587
621.02881	0.59662
619.10015	0.59749
617.17148	0.59897
615.24282	0.60095
613.31416	0.60271
611.38550	0.60420
609.45684	0.60602
607.52818	0.60828
605.59952	0.61073
603.67086	0.61295
601.74220	0.61499
599.81354	0.61695
597.88488	0.61909
595.95621	0.62117
594.02755	0.62280
592.09889	0.62413
590.17023	0.62534
588.24157	0.62622
586.31291	0.62671
584.38425	0.62675
582.45559	0.62676
580.52693	0.62734
578.59827	0.62797
576.66961	0.62811
574.74094	0.62827
572.81228	0.62852
570.88362	0.62828
568.95496	0.62778
567.02630	0.62787
565.09764	0.62853
563.16898	0.62887
561.24032	0.62886
559.31166	0.62897
557.38300	0.62913
555.45434	0.62932
553.52568	0.62955
551.59701	0.62961
549.66835	0.62958
547.73969	0.62963
545.81103	0.62974
543.88237	0.62962
541.95371	0.62925
540.02505	0.62922
538.09639	0.62937
536.16773	0.62897
534.23907	0.62824
532.31041	0.62757
530.38174	0.62699
528.45308	0.62675
526.52442	0.62706
524.59576	0.62751
522.66710	0.62748
520.73844	0.62676
518.80978	0.62567
516.88112	0.62497
514.95246	0.62495
513.02380	0.62513
511.09514	0.62506
509.16647	0.62448
507.23781	0.62381
505.30915	0.62362
503.38049	0.62348
501.45183	0.62302
499.52317	0.62265
497.59451	0.62248
495.66585	0.62248
493.73719	0.62252
491.80853	0.62238
489.87987	0.62238
487.95120	0.62258
486.02254	0.62244
484.09388	0.62197
482.16522	0.62188
480.23656	0.62243
478.30790	0.62290
476.37924	0.62275
474.45058	0.62224
472.52192	0.62189
470.59326	0.62196
468.66460	0.62219
466.73594	0.62241
464.80727	0.62245
462.87861	0.62212
460.94995	0.62179
459.02129	0.62169
457.09263	0.62137
455.16397	0.62080
453.23531	0.62044
451.30665	0.62059
449.37799	0.62118
447.44933	0.62150
445.52067	0.62126
443.59200	0.62133
441.66334	0.62193
439.73468	0.62246
437.80602	0.62270
435.87736	0.62277
433.94870	0.62285
432.02004	0.62281
430.09138	0.62219
428.16272	0.62122
426.23406	0.62084
424.30540	0.62136
422.37673	0.62189
420.44807	0.62158
418.51941	0.62079
416.59075	0.62042
414.66209	0.62072
412.73343	0.62127
410.80477	0.62138
408.87611	0.62110
406.94745	0.62100
405.01879	0.62096
403.09013	0.62077
401.16146	0.62066
399.23280	0.62068
