3996.23848	0.32881
3994.30979	0.33319
3992.38110	0.33762
3990.45242	0.33314
3988.52373	0.32414
3986.59504	0.32253
3984.66636	0.32876
3982.73767	0.33406
3980.80898	0.33619
3978.88030	0.33790
3976.95161	0.33735
3975.02292	0.33357
3973.09424	0.33212
3971.16555	0.33588
3969.23687	0.33892
3967.30818	0.33763
3965.37949	0.33352
3963.45081	0.32993
3961.52212	0.32983
3959.59343	0.32881
3957.66475	0.32562
3955.73606	0.32557
3953.80737	0.32731
3951.87869	0.32773
3949.95000	0.32954
3948.02131	0.33308
3946.09263	0.33400
3944.16394	0.33204
3942.23525	0.33007
3940.30657	0.32906
3938.37788	0.33006
3936.44919	0.33346
3934.52051	0.33593
3932.59182	0.33493
3930.66313	0.33310
3928.73445	0.33244
3926.80576	0.33338
3924.87708	0.33407
3922.94839	0.33238
3921.01970	0.33225
3919.09102	0.33191
3917.16233	0.32737
3915.23364	0.32539
3913.30496	0.32778
3911.37627	0.32807
3909.44758	0.32691
3907.51890	0.32786
3905.59021	0.32798
3903.66152	0.32542
3901.73284	0.32322
3899.80415	0.32259
3897.87546	0.32406
3895.94678	0.32636
3894.01809	0.32498
3892.08940	0.32235
3890.16072	0.32386
3888.23203	0.32518
3886.30334	0.32235
3884.37466	0.31988
3882.44597	0.32202
3880.51729	0.32572
3878.58860	0.32514
3876.65991	0.32367
3874.73123	0.32546
3872.80254	0.32441
3870.87385	0.31913
3868.94517	0.31700
3867.01648	0.31990
3865.08779	0.32506
3863.15911	0.33019
3861.23042	0.33296
3859.30173	0.33277
3857.37305	0.32902
3855.44436	0.32341
3853.51567	0.32150
3851.58699	0.32367
3849.65830	0.32485
3847.72961	0.32417
3845.80093	0.32542
3843.87224	0.32795
3841.94355	0.32668
3840.01487	0.32185
3838.08618	0.31776
3836.15750	0.31783
3834.22881	0.32298
3832.30012	0.32873
3830.37144	0.32995
3828.44275	0.32870
3826.51406	0.32886
3824.58538	0.32890
3822.65669	0.32710
3820.72800	0.32636
3818.79932	0.32871
3816.87063	0.33028
3814.94194	0.32829
3813.01326	0.32740
3811.08457	0.32990
3809.15588	0.33091
3807.22720	0.32868
3805.29851	0.32550
3803.36982	0.32364
3801.44114	0.32568
3799.51245	0.32957
3797.58376	0.33056
3795.65508	0.32969
3793.72639	0.32937
3791.79771	0.32754
3789.86902	0.32455
3787.94033	0.32369
3786.01165	0.32367
3784.08296	0.32328
3782.15427	0.32325
3780.22559	0.32276
3778.29690	0.32243
3776.36821	0.32400
3774.43953	0.32740
3772.51084	0.32879
3770.58215	0.32540
3768.65347	0.32144
3766.72478	0.32160
3764.79609	0.32399
3762.86741	0.32509
3760.93872	0.32623
3759.01003	0.32825
3757.08135	0.32760
3755.15266	0.32329
3753.22397	0.31917
3751.29529	0.31887
3749.36660	0.32119
3747.43792	0.32106
3745.50923	0.31816
3743.58054	0.31805
3741.65186	0.32077
3739.72317	0.32064
3737.79448	0.31673
3735.86580	0.31337
3733.93711	0.31336
3732.00842	0.31596
3730.07974	0.31864
3728.15105	0.31942
3726.22236	0.31943
3724.29368	0.31943
3722.36499	0.31762
3720.43630	0.31373
3718.50762	0.31116
3716.57893	0.31150
3714.65024	0.31291
3712.72156	0.31553
3710.79287	0.31870
3708.86418	0.32068
3706.93550	0.32172
3705.00681	0.32135
3703.07812	0.31893
3701.14944	0.31595
3699.22075	0.31657
3697.29207	0.32003
3695.36338	0.31987
3693.43469	0.31596
3691.50601	0.31385
3689.57732	0.31616
3687.64863	0.31907
3685.71995	0.31728
3683.79126	0.31451
3681.86257	0.31615
3679.93389	0.31775
3678.00520	0.31405
3676.07651	0.30991
3674.14783	0.31141
3672.21914	0.31281
3670.29045	0.30971
3668.36177	0.30964
3666.43308	0.31365
3664.50439	0.31522
3662.57571	0.31327
3660.64702	0.31092
3658.71833	0.31107
3656.78965	0.31281
3654.86096	0.31426
3652.93228	0.31470
3651.00359	0.31064
3649.07490	0.30326
3647.14622	0.30084
3645.21753	0.30534
3643.28884	0.31108
3641.36016	0.31464
3639.43147	0.31563
3637.50278	0.31398
3635.57410	0.31150
3633.64541	0.30944
3631.71672	0.30656
3629.78804	0.30411
3627.85935	0.30451
3625.93066	0.30713
3624.00198	0.30902
3622.07329	0.30762
3620.14460	0.30481
3618.21592	0.30442
3616.28723	0.30675
3614.35854	0.30844
3612.42986	0.30846
3610.50117	0.31081
3608.57249	0.31342
3606.64380	0.31177
3604.71511	0.31162
3602.78643	0.31415
3600.85774	0.31138
3598.92905	0.30417
3597.00037	0.29924
3595.07168	0.29874
3593.14299	0.30132
3591.21431	0.30530
3589.28562	0.30971
3587.35693	0.31137
3585.42825	0.30992
3583.49956	0.31029
3581.57087	0.31370
3579.64219	0.31813
3577.71350	0.32099
3575.78481	0.31843
3573.85613	0.31157
3571.92744	0.30650
3569.99875	0.30429
3568.07007	0.30331
3566.14138	0.30593
3564.21270	0.31203
3562.28401	0.31681
3560.35532	0.31650
3558.42664	0.31262
3556.49795	0.31026
3554.56926	0.31089
3552.64058	0.31205
3550.71189	0.31179
3548.78320	0.30987
3546.85452	0.30837
3544.92583	0.31027
3542.99714	0.31364
3541.06846	0.31393
3539.13977	0.31254
3537.21108	0.31275
3535.28240	0.31446
3533.35371	0.31650
3531.42502	0.31663
3529.49634	0.31354
3527.56765	0.31009
3525.63896	0.30935
3523.71028	0.31103
3521.78159	0.31198
3519.85291	0.31051
3517.92422	0.31069
3515.99553	0.31417
3514.06685	0.31783
3512.13816	0.31981
3510.20947	0.31835
3508.28079	0.31501
3506.35210	0.31404
3504.42341	0.31563
3502.49473	0.31637
3500.56604	0.31298
3498.63735	0.30736
3496.70867	0.30420
3494.77998	0.30419
3492.85129	0.30709
3490.92261	0.31340
3488.99392	0.31902
3487.06523	0.31895
3485.13655	0.31487
3483.20786	0.31156
3481.27917	0.30989
3479.35049	0.31036
3477.42180	0.31630
3475.49312	0.32346
3473.56443	0.32292
3471.63574	0.31763
3469.70706	0.31409
3467.77837	0.31142
3465.84968	0.31165
3463.92100	0.31699
3461.99231	0.31930
3460.06362	0.31556
3458.13494	0.31283
3456.20625	0.31294
3454.27756	0.31535
3452.34888	0.31833
3450.42019	0.31619
3448.49150	0.31100
3446.56282	0.31020
3444.63413	0.31355
3442.70544	0.31690
3440.77676	0.31849
3438.84807	0.31834
3436.91938	0.31791
3434.99070	0.31799
3433.06201	0.31796
3431.13333	0.31701
3429.20464	0.31590
3427.27595	0.31568
3425.34727	0.31506
3423.41858	0.31272
3421.48989	0.30859
3419.56121	0.30550
3417.63252	0.30707
3415.70383	0.31191
3413.77515	0.31628
3411.84646	0.31835
3409.91777	0.31879
3407.98909	0.31758
3406.06040	0.31461
3404.13171	0.31379
3402.20303	0.31708
3400.27434	0.31922
3398.34565	0.31625
3396.41697	0.31335
3394.48828	0.31508
3392.55959	0.31817
3390.63091	0.31906
3388.70222	0.31758
3386.77354	0.31539
3384.84485	0.31486
3382.91616	0.31757
3380.98748	0.32077
3379.05879	0.32022
3377.13010	0.31800
3375.20142	0.31643
3373.27273	0.31382
3371.34404	0.31102
3369.41536	0.31065
3367.48667	0.31254
3365.55798	0.31444
3363.62930	0.31477
3361.70061	0.31444
3359.77192	0.31433
3357.84324	0.31267
3355.91455	0.31186
3353.98586	0.31538
3352.05718	0.31759
3350.12849	0.31553
3348.19980	0.31403
3346.27112	0.31419
3344.34243	0.31451
3342.41375	0.31445
3340.48506	0.31645
3338.55637	0.32236
3336.62769	0.32478
3334.69900	0.32030
3332.77031	0.31673
3330.84163	0.31770
3328.91294	0.32052
3326.98425	0.32156
3325.05557	0.31983
3323.12688	0.31814
3321.19819	0.31747
3319.26951	0.31837
3317.34082	0.32118
3315.41213	0.32281
3313.48345	0.32132
3311.55476	0.31730
3309.62607	0.31217
3307.69739	0.30973
3305.76870	0.31209
3303.84001	0.31563
3301.91133	0.31623
3299.98264	0.31540
3298.05396	0.31750
3296.12527	0.32187
3294.19658	0.32224
3292.26790	0.31598
3290.33921	0.31010
3288.41052	0.31082
3286.48184	0.31412
3284.55315	0.31513
3282.62446	0.31457
3280.69578	0.31378
3278.76709	0.31197
3276.83840	0.30854
3274.90972	0.30591
3272.98103	0.30826
3271.05234	0.31443
3269.12366	0.31739
3267.19497	0.31454
3265.26628	0.31042
3263.33760	0.30970
3261.40891	0.31195
3259.48022	0.31469
3257.55154	0.31717
3255.62285	0.31856
3253.69417	0.31992
3251.76548	0.32015
3249.83679	0.31506
3247.90811	0.30777
3245.97942	0.30563
3244.05073	0.31017
3242.12205	0.31634
3240.19336	0.31969
3238.26467	0.32055
3236.33599	0.32084
3234.40730	0.32163
3232.47861	0.32099
3230.54993	0.31823
3228.62124	0.31816
3226.69255	0.32093
3224.76387	0.32050
3222.83518	0.31763
3220.90649	0.31766
3218.97781	0.32003
3217.04912	0.31959
3215.12043	0.31599
3213.19175	0.31532
3211.26306	0.31878
3209.33437	0.32076
3207.40569	0.31876
3205.47700	0.31660
3203.54832	0.31631
3201.61963	0.31493
3199.69094	0.31216
3197.76226	0.31075
3195.83357	0.31257
3193.90488	0.31666
3191.97620	0.31842
3190.04751	0.31543
3188.11882	0.31222
3186.19014	0.31452
3184.26145	0.31962
3182.33276	0.32142
3180.40408	0.32058
3178.47539	0.31937
3176.54670	0.31755
3174.61802	0.31501
3172.68933	0.31152
3170.76064	0.30843
3168.83196	0.30880
3166.90327	0.31249
3164.97458	0.31580
3163.04590	0.31659
3161.11721	0.31609
3159.18853	0.31527
3157.25984	0.31315
3155.33115	0.31064
3153.40247	0.31222
3151.47378	0.31900
3149.54509	0.32526
3147.61641	0.32628
3145.68772	0.32308
3143.75903	0.31998
3141.83035	0.31958
3139.90166	0.31884
3137.97297	0.31718
3136.04429	0.31914
3134.11560	0.32218
3132.18691	0.32020
3130.25823	0.31537
3128.32954	0.31225
3126.40085	0.31189
3124.47217	0.31501
3122.54348	0.31947
3120.61479	0.32053
3118.68611	0.31904
3116.75742	0.31945
3114.82874	0.32096
3112.90005	0.32030
3110.97136	0.31777
3109.04268	0.31577
3107.11399	0.31472
3105.18530	0.31309
3103.25662	0.31117
3101.32793	0.31058
3099.39924	0.31174
3097.47056	0.31430
3095.54187	0.31723
3093.61318	0.31954
3091.68450	0.31986
3089.75581	0.31727
3087.82712	0.31376
3085.89844	0.31219
3083.96975	0.31329
3082.04106	0.31510
3080.11238	0.31670
3078.18369	0.31792
3076.25500	0.31683
3074.32632	0.31554
3072.39763	0.31763
3070.46895	0.31910
3068.54026	0.31651
3066.61157	0.31436
3064.68289	0.31537
3062.75420	0.31634
3060.82551	0.31624
3058.89683	0.31755
3056.96814	0.32027
3055.03945	0.32094
3053.11077	0.31699
3051.18208	0.31184
3049.25339	0.31088
3047.32471	0.31269
3045.39602	0.31304
3043.46733	0.31342
3041.53865	0.31690
3039.60996	0.32004
3037.68127	0.31887
3035.75259	0.31570
3033.82390	0.31316
3031.89521	0.31257
3029.96653	0.31491
3028.03784	0.31841
3026.10916	0.32083
3024.18047	0.32114
3022.25178	0.31938
3020.32310	0.31561
3018.39441	0.31116
3016.46572	0.31015
3014.53704	0.31354
3012.60835	0.31784
3010.67966	0.32054
3008.75098	0.32089
3006.82229	0.32050
3004.89360	0.32080
3002.96492	0.31899
3001.03623	0.31512
2999.10754	0.31330
2997.17886	0.31395
2995.25017	0.31628
2993.32148	0.31949
2991.39280	0.32034
2989.46411	0.31750
2987.53542	0.31404
2985.60674	0.31305
2983.67805	0.31462
2981.74937	0.31782
2979.82068	0.31991
2977.89199	0.31811
2975.96331	0.31468
2974.03462	0.31250
2972.10593	0.31152
2970.17725	0.31304
2968.24856	0.31641
2966.31987	0.31771
2964.39119	0.31703
2962.46250	0.31647
2960.53381	0.31648
2958.60513	0.31659
2956.67644	0.31595
2954.74775	0.31540
2952.81907	0.31610
2950.89038	0.31822
2948.96169	0.31948
2947.03301	0.31863
2945.10432	0.31815
2943.17563	0.31810
2941.24695	0.31654
2939.31826	0.31515
2937.38958	0.31661
2935.46089	0.31883
2933.53220	0.31890
2931.60352	0.31775
2929.67483	0.31650
2927.74614	0.31627
2925.81746	0.31726
2923.88877	0.31845
2921.96008	0.31933
2920.03140	0.31907
2918.10271	0.31900
2916.17402	0.32057
2914.24534	0.32259
2912.31665	0.32319
2910.38796	0.32227
2908.45928	0.32238
2906.53059	0.32227
2904.60190	0.31975
2902.67322	0.31862
2900.74453	0.31911
2898.81584	0.31787
2896.88716	0.31652
2894.95847	0.31727
2893.02979	0.31835
2891.10110	0.31824
2889.17241	0.31809
2887.24373	0.31809
2885.31504	0.31819
2883.38635	0.31904
2881.45767	0.31927
2879.52898	0.31837
2877.60029	0.31826
2875.67161	0.31865
2873.74292	0.31716
2871.81423	0.31598
2869.88555	0.31807
2867.95686	0.31940
2866.02817	0.31702
2864.09949	0.31545
2862.17080	0.31811
2860.24211	0.32092
2858.31343	0.31956
2856.38474	0.31670
2854.45605	0.31612
2852.52737	0.31660
2850.59868	0.31563
2848.67000	0.31412
2846.74131	0.31444
2844.81262	0.31705
2842.88394	0.31965
2840.95525	0.31924
2839.02656	0.31647
2837.09788	0.31441
2835.16919	0.31356
2833.24050	0.31277
2831.31182	0.31213
2829.38313	0.31175
2827.45444	0.31262
2825.52576	0.31568
2823.59707	0.31757
2821.66838	0.31552
2819.73970	0.31327
2817.81101	0.31547
2815.88232	0.32016
2813.95364	0.32084
2812.02495	0.31595
2810.09626	0.31194
2808.16758	0.31149
2806.23889	0.31039
2804.31021	0.31012
2802.38152	0.31395
2800.45283	0.31762
2798.52415	0.31789
2796.59546	0.31643
2794.66677	0.31448
2792.73809	0.31375
2790.80940	0.31549
2788.88071	0.31720
2786.95203	0.31716
2785.02334	0.31604
2783.09465	0.31430
2781.16597	0.31418
2779.23728	0.31711
2777.30859	0.31991
2775.37991	0.31973
2773.45122	0.31735
2771.52253	0.31513
2769.59385	0.31546
2767.66516	0.31777
2765.73647	0.31784
2763.80779	0.31450
2761.87910	0.31340
2759.95042	0.31653
2758.02173	0.31748
2756.09304	0.31487
2754.16436	0.31356
2752.23567	0.31383
2750.30698	0.31351
2748.37830	0.31237
2746.44961	0.31071
2744.52092	0.30954
2742.59224	0.31106
2740.66355	0.31497
2738.73486	0.31740
2736.80618	0.31646
2734.87749	0.31492
2732.94880	0.31510
2731.02012	0.31476
2729.09143	0.31220
2727.16274	0.30984
2725.23406	0.30939
2723.30537	0.30959
2721.37668	0.30910
2719.44800	0.30954
2717.51931	0.31323
2715.59062	0.31701
2713.66194	0.31623
2711.73325	0.31421
2709.80457	0.31546
2707.87588	0.31759
2705.94719	0.31744
2704.01851	0.31590
2702.08982	0.31572
2700.16113	0.31758
2698.23245	0.31949
2696.30376	0.31950
2694.37507	0.31817
2692.44639	0.31739
2690.51770	0.31724
2688.58901	0.31727
2686.66033	0.31696
2684.73164	0.31565
2682.80295	0.31464
2680.87427	0.31561
2678.94558	0.31718
2677.01689	0.31642
2675.08821	0.31403
2673.15952	0.31363
2671.23083	0.31568
2669.30215	0.31668
2667.37346	0.31527
2665.44478	0.31383
2663.51609	0.31369
2661.58740	0.31450
2659.65872	0.31555
2657.73003	0.31614
2655.80134	0.31594
2653.87266	0.31548
2651.94397	0.31637
2650.01528	0.31828
2648.08660	0.31945
2646.15791	0.31925
2644.22922	0.31811
2642.30054	0.31741
2640.37185	0.31761
2638.44316	0.31802
2636.51448	0.31901
2634.58579	0.32142
2632.65710	0.32389
2630.72842	0.32351
2628.79973	0.32013
2626.87104	0.31698
2624.94236	0.31606
2623.01367	0.31612
2621.08499	0.31519
2619.15630	0.31399
2617.22761	0.31401
2615.29893	0.31323
2613.37024	0.31083
2611.44155	0.30993
2609.51287	0.31164
2607.58418	0.31347
2605.65549	0.31296
2603.72681	0.31115
2601.79812	0.31104
2599.86943	0.31236
2597.94075	0.31233
2596.01206	0.31091
2594.08337	0.31032
2592.15469	0.31133
2590.22600	0.31378
2588.29731	0.31633
2586.36863	0.31591
2584.43994	0.31349
2582.51125	0.31396
2580.58257	0.31650
2578.65388	0.31688
2576.72520	0.31609
2574.79651	0.31637
2572.86782	0.31729
2570.93914	0.31780
2569.01045	0.31757
2567.08176	0.31782
2565.15308	0.31835
2563.22439	0.31667
2561.29570	0.31437
2559.36702	0.31480
2557.43833	0.31575
2555.50964	0.31551
2553.58096	0.31678
2551.65227	0.31860
2549.72358	0.31798
2547.79490	0.31628
2545.86621	0.31519
2543.93752	0.31422
2542.00884	0.31376
2540.08015	0.31416
2538.15146	0.31465
2536.22278	0.31456
2534.29409	0.31373
2532.36541	0.31213
2530.43672	0.31135
2528.50803	0.31279
2526.57935	0.31461
2524.65066	0.31588
2522.72197	0.31751
2520.79329	0.31869
2518.86460	0.31795
2516.93591	0.31518
2515.00723	0.31201
2513.07854	0.31074
2511.14985	0.31183
2509.22117	0.31404
2507.29248	0.31597
2505.36379	0.31583
2503.43511	0.31490
2501.50642	0.31657
2499.57773	0.31880
2497.64905	0.31898
2495.72036	0.31869
2493.79167	0.31904
2491.86299	0.31906
2489.93430	0.31685
2488.00562	0.31415
2486.07693	0.31516
2484.14824	0.31822
2482.21956	0.31803
2480.29087	0.31519
2478.36218	0.31428
2476.43350	0.31534
2474.50481	0.31631
2472.57612	0.31765
2470.64744	0.31784
2468.71875	0.31512
2466.79006	0.31365
2464.86138	0.31555
2462.93269	0.31667
2461.00400	0.31641
2459.07532	0.31665
2457.14663	0.31649
2455.21794	0.31638
2453.28926	0.31763
2451.36057	0.31867
2449.43188	0.31746
2447.50320	0.31496
2445.57451	0.31396
2443.64583	0.31461
2441.71714	0.31439
2439.78845	0.31325
2437.85977	0.31382
2435.93108	0.31593
2434.00239	0.31699
2432.07371	0.31635
2430.14502	0.31468
2428.21633	0.31280
2426.28765	0.31207
2424.35896	0.31274
2422.43027	0.31381
2420.50159	0.31454
2418.57290	0.31507
2416.64421	0.31587
2414.71553	0.31622
2412.78684	0.31588
2410.85815	0.31617
2408.92947	0.31722
2407.00078	0.31772
2405.07209	0.31707
2403.14341	0.31603
2401.21472	0.31537
2399.28604	0.31555
2397.35735	0.31684
2395.42866	0.31787
2393.49998	0.31748
2391.57129	0.31666
2389.64260	0.31568
2387.71392	0.31423
2385.78523	0.31313
2383.85654	0.31273
2381.92786	0.31307
2379.99917	0.31469
2378.07048	0.31598
2376.14180	0.31283
2374.21311	0.30558
2372.28442	0.29945
2370.35574	0.29573
2368.42705	0.29303
2366.49836	0.29165
2364.56968	0.29052
2362.64099	0.28882
2360.71230	0.28756
2358.78362	0.28776
2356.85493	0.29164
2354.92625	0.29858
2352.99756	0.30379
2351.06887	0.30635
2349.14019	0.30764
2347.21150	0.30669
2345.28281	0.30350
2343.35413	0.30010
2341.42544	0.29938
2339.49675	0.30110
2337.56807	0.30064
2335.63938	0.29768
2333.71069	0.29629
2331.78201	0.29718
2329.85332	0.29901
2327.92463	0.30093
2325.99595	0.30233
2324.06726	0.30277
2322.13857	0.30251
2320.20989	0.30327
2318.28120	0.30569
2316.35251	0.30797
2314.42383	0.30841
2312.49514	0.30789
2310.56646	0.30859
2308.63777	0.31075
2306.70908	0.31349
2304.78040	0.31598
2302.85171	0.31722
2300.92302	0.31680
2298.99434	0.31541
2297.06565	0.31428
2295.13696	0.31337
2293.20828	0.31235
2291.27959	0.31217
2289.35090	0.31314
2287.42222	0.31413
2285.49353	0.31438
2283.56484	0.31524
2281.63616	0.31793
2279.70747	0.32085
2277.77878	0.32178
2275.85010	0.32055
2273.92141	0.31862
2271.99272	0.31713
2270.06404	0.31646
2268.13535	0.31686
2266.20667	0.31715
2264.27798	0.31626
2262.34929	0.31597
2260.42061	0.31683
2258.49192	0.31698
2256.56323	0.31604
2254.63455	0.31518
2252.70586	0.31573
2250.77717	0.31671
2248.84849	0.31620
2246.91980	0.31496
2244.99111	0.31455
2243.06243	0.31517
2241.13374	0.31578
2239.20505	0.31560
2237.27637	0.31500
2235.34768	0.31447
2233.41899	0.31439
2231.49031	0.31458
2229.56162	0.31416
2227.63293	0.31323
2225.70425	0.31365
2223.77556	0.31611
2221.84687	0.31811
2219.91819	0.31741
2217.98950	0.31538
2216.06082	0.31393
2214.13213	0.31273
2212.20344	0.31248
2210.27476	0.31403
2208.34607	0.31531
2206.41738	0.31549
2204.48870	0.31600
2202.56001	0.31686
2200.63132	0.31748
2198.70264	0.31756
2196.77395	0.31664
2194.84526	0.31606
2192.91658	0.31745
2190.98789	0.31832
2189.05920	0.31639
2187.13052	0.31483
2185.20183	0.31609
2183.27314	0.31784
2181.34446	0.31745
2179.41577	0.31556
2177.48708	0.31416
2175.55840	0.31335
2173.62971	0.31359
2171.70103	0.31578
2169.77234	0.31833
2167.84365	0.31967
2165.91497	0.31993
2163.98628	0.31892
2162.05759	0.31674
2160.12891	0.31593
2158.20022	0.31757
2156.27153	0.31939
2154.34285	0.31994
2152.41416	0.31936
2150.48547	0.31871
2148.55679	0.31817
2146.62810	0.31673
2144.69941	0.31495
2142.77073	0.31412
2140.84204	0.31472
2138.91335	0.31610
2136.98467	0.31716
2135.05598	0.31763
2133.12729	0.31829
2131.19861	0.31845
2129.26992	0.31683
2127.34124	0.31522
2125.41255	0.31472
2123.48386	0.31492
2121.55518	0.31635
2119.62649	0.31769
2117.69780	0.31726
2115.76912	0.31620
2113.84043	0.31559
2111.91174	0.31477
2109.98306	0.31382
2108.05437	0.31328
2106.12568	0.31265
2104.19700	0.31183
2102.26831	0.31251
2100.33962	0.31539
2098.41094	0.31748
2096.48225	0.31643
2094.55356	0.31400
2092.62488	0.31234
2090.69619	0.31099
2088.76750	0.30972
2086.83882	0.31109
2084.91013	0.31478
2082.98145	0.31640
2081.05276	0.31554
2079.12407	0.31541
2077.19539	0.31642
2075.26670	0.31673
2073.33801	0.31548
2071.40933	0.31361
2069.48064	0.31258
2067.55195	0.31240
2065.62327	0.31218
2063.69458	0.31249
2061.76589	0.31358
2059.83721	0.31318
2057.90852	0.31155
2055.97983	0.31191
2054.05115	0.31397
2052.12246	0.31538
2050.19377	0.31557
2048.26509	0.31433
2046.33640	0.31227
2044.40771	0.31160
2042.47903	0.31259
2040.55034	0.31280
2038.62166	0.31157
2036.69297	0.31093
2034.76428	0.31150
2032.83560	0.31220
2030.90691	0.31332
2028.97822	0.31513
2027.04954	0.31669
2025.12085	0.31725
2023.19216	0.31542
2021.26348	0.31235
2019.33479	0.31226
2017.40610	0.31498
2015.47742	0.31777
2013.54873	0.31884
2011.62004	0.31695
2009.69136	0.31419
2007.76267	0.31270
2005.83398	0.31217
2003.90530	0.31317
2001.97661	0.31513
2000.04792	0.31556
1998.11924	0.31506
1996.19055	0.31579
1994.26187	0.31592
1992.33318	0.31447
1990.40449	0.31437
1988.47581	0.31598
1986.54712	0.31734
1984.61843	0.31788
1982.68975	0.31698
1980.76106	0.31461
1978.83237	0.31324
1976.90369	0.31382
1974.97500	0.31405
1973.04631	0.31365
1971.11763	0.31338
1969.18894	0.31273
1967.26025	0.31343
1965.33157	0.31626
1963.40288	0.31796
1961.47419	0.31734
1959.54551	0.31680
1957.61682	0.31668
1955.68813	0.31627
1953.75945	0.31651
1951.83076	0.31645
1949.90208	0.31452
1947.97339	0.31244
1946.04470	0.31202
1944.11602	0.31294
1942.18733	0.31376
1940.25864	0.31299
1938.32996	0.31235
1936.40127	0.31322
1934.47258	0.31314
1932.54390	0.31207
1930.61521	0.31227
1928.68652	0.31322
1926.75784	0.31454
1924.82915	0.31672
1922.90046	0.31772
1920.97178	0.31663
1919.04309	0.31616
1917.11440	0.31733
1915.18572	0.31751
1913.25703	0.31539
1911.32834	0.31374
1909.39966	0.31497
1907.47097	0.31736
1905.54229	0.31778
1903.61360	0.31596
1901.68491	0.31406
1899.75623	0.31375
1897.82754	0.31447
1895.89885	0.31454
1893.97017	0.31431
1892.04148	0.31443
1890.11279	0.31478
1888.18411	0.31581
1886.25542	0.31645
1884.32673	0.31634
1882.39805	0.31640
1880.46936	0.31586
1878.54067	0.31478
1876.61199	0.31469
1874.68330	0.31586
1872.75461	0.31693
1870.82593	0.31651
1868.89724	0.31486
1866.96855	0.31352
1865.03987	0.31281
1863.11118	0.31307
1861.18250	0.31504
1859.25381	0.31676
1857.32512	0.31702
1855.39644	0.31682
1853.46775	0.31598
1851.53906	0.31492
1849.61038	0.31560
1847.68169	0.31732
1845.75300	0.31695
1843.82432	0.31526
1841.89563	0.31560
1839.96694	0.31677
1838.03826	0.31610
1836.10957	0.31486
1834.18088	0.31535
1832.25220	0.31683
1830.32351	0.31689
1828.39482	0.31544
1826.46614	0.31442
1824.53745	0.31476
1822.60876	0.31582
1820.68008	0.31658
1818.75139	0.31663
1816.82271	0.31652
1814.89402	0.31688
1812.96533	0.31684
1811.03665	0.31511
1809.10796	0.31295
1807.17927	0.31230
1805.25059	0.31305
1803.32190	0.31454
1801.39321	0.31592
1799.46453	0.31605
1797.53584	0.31491
1795.60715	0.31337
1793.67847	0.31221
1791.74978	0.31201
1789.82109	0.31279
1787.89241	0.31389
1785.96372	0.31502
1784.03503	0.31618
1782.10635	0.31644
1780.17766	0.31574
1778.24897	0.31498
1776.32029	0.31384
1774.39160	0.31223
1772.46292	0.31101
1770.53423	0.31122
1768.60554	0.31315
1766.67686	0.31528
1764.74817	0.31585
1762.81948	0.31561
1760.89080	0.31616
1758.96211	0.31644
1757.03342	0.31522
1755.10474	0.31404
1753.17605	0.31384
1751.24736	0.31375
1749.31868	0.31354
1747.38999	0.31413
1745.46130	0.31514
1743.53262	0.31538
1741.60393	0.31597
1739.67524	0.31709
1737.74656	0.31656
1735.81787	0.31441
1733.88918	0.31319
1731.96050	0.31373
1730.03181	0.31385
1728.10312	0.31297
1726.17444	0.31268
1724.24575	0.31416
1722.31707	0.31637
1720.38838	0.31586
1718.45969	0.31245
1716.53101	0.31049
1714.60232	0.31162
1712.67363	0.31278
1710.74495	0.31229
1708.81626	0.31224
1706.88757	0.31358
1704.95889	0.31542
1703.03020	0.31616
1701.10151	0.31454
1699.17283	0.31252
1697.24414	0.31190
1695.31545	0.31267
1693.38677	0.31472
1691.45808	0.31685
1689.52939	0.31782
1687.60071	0.31661
1685.67202	0.31327
1683.74333	0.31144
1681.81465	0.31338
1679.88596	0.31535
1677.95728	0.31418
1676.02859	0.31316
1674.09990	0.31540
1672.17122	0.31674
1670.24253	0.31411
1668.31384	0.31202
1666.38516	0.31287
1664.45647	0.31380
1662.52778	0.31429
1660.59910	0.31600
1658.67041	0.31737
1656.74172	0.31511
1654.81304	0.31103
1652.88435	0.31075
1650.95566	0.31402
1649.02698	0.31595
1647.09829	0.31581
1645.16960	0.31538
1643.24092	0.31538
1641.31223	0.31578
1639.38354	0.31547
1637.45486	0.31418
1635.52617	0.31391
1633.59749	0.31493
1631.66880	0.31541
1629.74011	0.31530
1627.81143	0.31574
1625.88274	0.31666
1623.95405	0.31731
1622.02537	0.31756
1620.09668	0.31699
1618.16799	0.31556
1616.23931	0.31513
1614.31062	0.31658
1612.38193	0.31849
1610.45325	0.32009
1608.52456	0.32120
1606.59587	0.32073
1604.66719	0.31875
1602.73850	0.31749
1600.80981	0.31650
1598.88113	0.31373
1596.95244	0.31194
1595.02375	0.31353
1593.09507	0.31466
1591.16638	0.31364
1589.23770	0.31388
1587.30901	0.31495
1585.38032	0.31417
1583.45164	0.31268
1581.52295	0.31160
1579.59426	0.31045
1577.66558	0.31010
1575.73689	0.31153
1573.80820	0.31292
1571.87952	0.31296
1569.95083	0.31306
1568.02214	0.31398
1566.09346	0.31577
1564.16477	0.31747
1562.23608	0.31625
1560.30740	0.31281
1558.37871	0.31174
1556.45002	0.31399
1554.52134	0.31626
1552.59265	0.31728
1550.66396	0.31746
1548.73528	0.31596
1546.80659	0.31260
1544.87791	0.30883
1542.94922	0.30629
1541.02053	0.30588
1539.09185	0.30820
1537.16316	0.31166
1535.23447	0.31311
1533.30579	0.31419
1531.37710	0.31601
1529.44841	0.31443
1527.51973	0.31063
1525.59104	0.30972
1523.66235	0.31122
1521.73367	0.31284
1519.80498	0.31411
1517.87629	0.31404
1515.94761	0.31275
1514.01892	0.31261
1512.09023	0.31373
1510.16155	0.31402
1508.23286	0.31354
1506.30417	0.31410
1504.37549	0.31566
1502.44680	0.31631
1500.51812	0.31525
1498.58943	0.31308
1496.66074	0.31196
1494.73206	0.31367
1492.80337	0.31583
1490.87468	0.31570
1488.94600	0.31385
1487.01731	0.31223
1485.08862	0.31316
1483.15994	0.31563
1481.23125	0.31607
1479.30256	0.31433
1477.37388	0.31168
1475.44519	0.30905
1473.51650	0.30848
1471.58782	0.31020
1469.65913	0.31203
1467.73044	0.31273
1465.80176	0.31335
1463.87307	0.31478
1461.94438	0.31553
1460.01570	0.31383
1458.08701	0.31196
1456.15833	0.31293
1454.22964	0.31455
1452.30095	0.31529
1450.37227	0.31689
1448.44358	0.31900
1446.51489	0.32068
1444.58621	0.32276
1442.65752	0.32558
1440.72883	0.32581
1438.80015	0.32046
1436.87146	0.31383
1434.94277	0.31140
1433.01409	0.31253
1431.08540	0.31401
1429.15671	0.31396
1427.22803	0.31367
1425.29934	0.31493
1423.37065	0.31661
1421.44197	0.31699
1419.51328	0.31651
1417.58459	0.31734
1415.65591	0.31913
1413.72722	0.31897
1411.79854	0.31702
1409.86985	0.31541
1407.94116	0.31418
1406.01248	0.31326
1404.08379	0.31402
1402.15510	0.31563
1400.22642	0.31592
1398.29773	0.31497
1396.36904	0.31372
1394.44036	0.31323
1392.51167	0.31436
1390.58298	0.31506
1388.65430	0.31286
1386.72561	0.30983
1384.79692	0.30970
1382.86824	0.31206
1380.93955	0.31367
1379.01086	0.31401
1377.08218	0.31502
1375.15349	0.31592
1373.22480	0.31449
1371.29612	0.31215
1369.36743	0.31112
1367.43875	0.31079
1365.51006	0.31127
1363.58137	0.31369
1361.65269	0.31615
1359.72400	0.31617
1357.79531	0.31503
1355.86663	0.31443
1353.93794	0.31340
1352.00925	0.31215
1350.08057	0.31204
1348.15188	0.31247
1346.22319	0.31272
1344.29451	0.31262
1342.36582	0.31204
1340.43713	0.31216
1338.50845	0.31381
1336.57976	0.31514
1334.65107	0.31518
1332.72239	0.31529
1330.79370	0.31566
1328.86501	0.31618
1326.93633	0.31695
1325.00764	0.31623
1323.07896	0.31342
1321.15027	0.31212
1319.22158	0.31392
1317.29290	0.31447
1315.36421	0.31238
1313.43552	0.31186
1311.50684	0.31402
1309.57815	0.31587
1307.64946	0.31593
1305.72078	0.31461
1303.79209	0.31335
1301.86340	0.31427
1299.93472	0.31576
1298.00603	0.31424
1296.07734	0.31075
1294.14866	0.30898
1292.21997	0.30930
1290.29128	0.30921
1288.36260	0.30894
1286.43391	0.31027
1284.50522	0.31074
1282.57654	0.30814
1280.64785	0.30660
1278.71917	0.30875
1276.79048	0.31113
1274.86179	0.31128
1272.93311	0.31064
1271.00442	0.31198
1269.07573	0.31474
1267.14705	0.31584
1265.21836	0.31583
1263.28967	0.31597
1261.36099	0.31523
1259.43230	0.31392
1257.50361	0.31330
1255.57493	0.31308
1253.64624	0.31308
1251.71755	0.31449
1249.78887	0.31677
1247.86018	0.31693
1245.93149	0.31458
1244.00281	0.31339
1242.07412	0.31353
1240.14543	0.31197
1238.21675	0.30975
1236.28806	0.30936
1234.35937	0.31084
1232.43069	0.31259
1230.50200	0.31286
1228.57332	0.31247
1226.64463	0.31319
1224.71594	0.31471
1222.78726	0.31528
1220.85857	0.31381
1218.92988	0.31159
1217.00120	0.31092
1215.07251	0.31186
1213.14382	0.31300
1211.21514	0.31415
1209.28645	0.31567
1207.35776	0.31638
1205.42908	0.31483
1203.50039	0.31207
1201.57170	0.31023
1199.64302	0.31007
1197.71433	0.31100
1195.78564	0.31260
1193.85696	0.31588
1191.92827	0.31882
1189.99958	0.31719
1188.07090	0.31408
1186.14221	0.31516
1184.21353	0.31759
1182.28484	0.31709
1180.35615	0.31595
1178.42747	0.31625
1176.49878	0.31601
1174.57009	0.31485
1172.64141	0.31446
1170.71272	0.31361
1168.78403	0.31121
1166.85535	0.30874
1164.92666	0.30794
1162.99797	0.31024
1161.06929	0.31224
1159.14060	0.31130
1157.21191	0.31225
1155.28323	0.31591
1153.35454	0.31708
1151.42585	0.31505
1149.49717	0.31248
1147.56848	0.30932
1145.63979	0.30648
1143.71111	0.30678
1141.78242	0.30861
1139.85374	0.30862
1137.92505	0.30835
1135.99636	0.31144
1134.06768	0.31628
1132.13899	0.31715
1130.21030	0.31378
1128.28162	0.31244
1126.35293	0.31455
1124.42424	0.31473
1122.49556	0.31194
1120.56687	0.30941
1118.63818	0.30803
1116.70950	0.30767
1114.78081	0.30849
1112.85212	0.31076
1110.92344	0.31252
1108.99475	0.31212
1107.06606	0.31280
1105.13738	0.31649
1103.20869	0.31899
1101.28000	0.31735
1099.35132	0.31409
1097.42263	0.31219
1095.49395	0.31261
1093.56526	0.31390
1091.63657	0.31362
1089.70789	0.31237
1087.77920	0.31100
1085.85051	0.30893
1083.92183	0.30854
1081.99314	0.31080
1080.06445	0.31284
1078.13577	0.31522
1076.20708	0.31839
1074.27839	0.31827
1072.34971	0.31487
1070.42102	0.31236
1068.49233	0.31194
1066.56365	0.31254
1064.63496	0.31418
1062.70627	0.31588
1060.77759	0.31522
1058.84890	0.31415
1056.92021	0.31606
1054.99153	0.31788
1053.06284	0.31494
1051.13416	0.30870
1049.20547	0.30448
1047.27678	0.30515
1045.34810	0.30852
1043.41941	0.31187
1041.49072	0.31563
1039.56204	0.31917
1037.63335	0.32003
1035.70466	0.31725
1033.77598	0.31132
1031.84729	0.30658
1029.91860	0.30745
1027.98992	0.31056
1026.06123	0.31070
1024.13254	0.30948
1022.20386	0.31045
1020.27517	0.31125
1018.34648	0.30911
1016.41780	0.30807
1014.48911	0.31064
1012.56042	0.31240
1010.63174	0.31104
1008.70305	0.31009
1006.77437	0.31078
1004.84568	0.31129
1002.91699	0.31248
1000.98831	0.31587
999.05962	0.31884
997.13093	0.31711
995.20225	0.31229
993.27356	0.30922
991.34487	0.30884
989.41619	0.31029
987.48750	0.31236
985.55881	0.31335
983.63013	0.31280
981.70144	0.31065
979.77275	0.30768
977.84407	0.30652
975.91538	0.30738
973.98669	0.30823
972.05801	0.30811
970.12932	0.30632
968.20063	0.30539
966.27195	0.30808
964.34326	0.31160
962.41458	0.31263
960.48589	0.31072
958.55720	0.30648
956.62852	0.30240
954.69983	0.30229
952.77114	0.30515
950.84246	0.30675
948.91377	0.30615
946.98508	0.30417
945.05640	0.30240
943.12771	0.30255
941.19902	0.30430
939.27034	0.30535
937.34165	0.30534
935.41296	0.30680
933.48428	0.30902
931.55559	0.30853
929.62690	0.30581
927.69822	0.30352
925.76953	0.30060
923.84084	0.29701
921.91216	0.29759
919.98347	0.30279
918.05479	0.30657
916.12610	0.30512
914.19741	0.30258
912.26873	0.30458
910.34004	0.30841
908.41135	0.30800
906.48267	0.30384
904.55398	0.30156
902.62529	0.30269
900.69661	0.30400
898.76792	0.30436
896.83923	0.30568
894.91055	0.30921
892.98186	0.31166
891.05317	0.30944
889.12449	0.30514
887.19580	0.30267
885.26711	0.30217
883.33843	0.30273
881.40974	0.30307
879.48105	0.30221
877.55237	0.30255
875.62368	0.30494
873.69500	0.30598
871.76631	0.30510
869.83762	0.30519
867.90894	0.30635
865.98025	0.30591
864.05156	0.30322
862.12288	0.29953
860.19419	0.29719
858.26550	0.29732
856.33682	0.29893
854.40813	0.30241
852.47944	0.30505
850.55076	0.30303
848.62207	0.29991
846.69338	0.30024
844.76470	0.30459
842.83601	0.30961
840.90732	0.30873
838.97864	0.30403
837.04995	0.30385
835.12126	0.30484
833.19258	0.30111
831.26389	0.29788
829.33521	0.29818
827.40652	0.29867
825.47783	0.29787
823.54915	0.29601
821.62046	0.29625
819.69177	0.30166
817.76309	0.30834
815.83440	0.31164
813.90571	0.31040
811.97703	0.30544
810.04834	0.30174
808.11965	0.30283
806.19097	0.30461
804.26228	0.30251
802.33359	0.29872
800.40491	0.29608
798.47622	0.29213
796.54753	0.28876
794.61885	0.29107
792.69016	0.29493
790.76147	0.29595
788.83279	0.29662
786.90410	0.29728
784.97542	0.29570
783.04673	0.29208
781.11804	0.28902
779.18936	0.28821
777.26067	0.29009
775.33198	0.29162
773.40330	0.28812
771.47461	0.28420
769.54592	0.28662
767.61724	0.29245
765.68855	0.29399
763.75986	0.28797
761.83118	0.28124
759.90249	0.28008
757.97380	0.28157
756.04512	0.28167
754.11643	0.27846
752.18774	0.27428
750.25906	0.27266
748.33037	0.27075
746.40168	0.26882
744.47300	0.27063
742.54431	0.27155
740.61562	0.26973
738.68694	0.27017
736.75825	0.27221
734.82957	0.27297
732.90088	0.27028
730.97219	0.26626
729.04351	0.26490
727.11482	0.26176
725.18613	0.25740
723.25745	0.25802
721.32876	0.26031
719.40007	0.26076
717.47139	0.26058
715.54270	0.26085
713.61401	0.26292
711.68533	0.26401
709.75664	0.26132
707.82795	0.25932
705.89927	0.25950
703.97058	0.25805
702.04189	0.25731
700.11321	0.26020
698.18452	0.26230
696.25583	0.26049
694.32715	0.25635
692.39846	0.25173
690.46978	0.25043
688.54109	0.25500
686.61240	0.25986
684.68372	0.25948
682.75503	0.25748
680.82634	0.25815
678.89766	0.25732
676.96897	0.25273
675.04028	0.25001
673.11160	0.24999
671.18291	0.24878
669.25422	0.24567
667.32554	0.24548
665.39685	0.25411
663.46816	0.26547
661.53948	0.26863
659.61079	0.26539
657.68210	0.26317
655.75342	0.26262
653.82473	0.26437
651.89604	0.27095
649.96736	0.27445
648.03867	0.26580
646.10999	0.25301
644.18130	0.24960
642.25261	0.25843
640.32393	0.26983
638.39524	0.27511
636.46655	0.27778
634.53787	0.28067
632.60918	0.28327
630.68049	0.28458
628.75181	0.28185
626.82312	0.27505
624.89443	0.26657
622.96575	0.26304
621.03706	0.26680
619.10837	0.27283
617.17969	0.27507
615.25100	0.26916
613.32231	0.26501
611.39363	0.26916
609.46494	0.26735
607.53625	0.25787
605.60757	0.25265
603.67888	0.25130
601.75020	0.24961
599.82151	0.24535
597.89282	0.24009
595.96414	0.23718
594.03545	0.23174
592.10676	0.23242
590.17808	0.24886
588.24939	0.25905
586.32070	0.25222
584.39202	0.24333
582.46333	0.23486
580.53464	0.22733
578.60596	0.22916
576.67727	0.23779
574.74858	0.24022
572.81990	0.23725
570.89121	0.23228
568.96252	0.22257
567.03384	0.21443
565.10515	0.20822
563.17646	0.20248
561.24778	0.20456
559.31909	0.20928
557.39041	0.20520
555.46172	0.20283
553.53303	0.21752
551.60435	0.22368
549.67566	0.20102
547.74697	0.18552
545.81829	0.21055
543.88960	0.24577
541.96091	0.23984
540.03223	0.21643
538.10354	0.23539
536.17485	0.28518
534.24617	0.29914
532.31748	0.27320
530.38879	0.23937
528.46011	0.18736
526.53142	0.12645
524.60273	0.10464
522.67405	0.09900
520.74536	0.06674
518.81667	0.00446
516.88799	-0.01653
514.95930	0.08388
513.03062	0.27278
511.10193	0.41124
509.17324	0.45269
507.24456	0.48146
505.31587	0.44048
503.38718	0.29459
501.45850	0.33136
499.52981	1.15711
497.60112	3.26687
495.67244	1.57142
493.74375	1.14617
491.81506	1.27736
489.88638	0.70715
487.95769	0.41791
486.02900	0.39784
484.10032	0.45766
482.17163	0.48558
480.24294	0.43238
478.31426	0.22240
476.38557	-0.34629
474.45688	-1.34287
472.52820	-1.34287
470.59951	-3.13660
468.67083	-3.13660
466.74214	0.21025
464.81345	0.14630
462.88477	0.65417
460.95608	0.89867
459.02739	0.84222
457.09871	0.85234
455.17002	0.48914
453.24133	-0.03167
451.31265	-0.32827
449.38396	-0.11351
447.45527	0.74981
445.52659	9.45168
443.59790	-1.26796
441.66921	-0.67059
439.74053	-0.67059
437.81184	3.37789
435.88315	4.54030
433.95447	2.88365
432.02578	-0.71714
430.09709	0.13426
428.16841	0.39121
426.23972	0.37198
424.31104	0.41658
422.38235	0.59244
420.45366	0.59244
418.52498	0.77056
416.59629	0.55714
414.66760	1.06501
412.73892	1.73839
410.81023	0.81322
408.88154	0.32479
406.95286	0.28618
405.02417	0.24922
403.09548	-1.00597
401.16680	7.46981
399.23811	7.46981
