3996.23848	0.36196
3994.30979	0.36056
3992.38110	0.36447
3990.45242	0.36847
3988.52373	0.36794
3986.59504	0.36696
3984.66636	0.36835
3982.73767	0.36977
3980.80898	0.36913
3978.88030	0.36663
3976.95161	0.36317
3975.02292	0.36180
3973.09424	0.36643
3971.16555	0.37367
3969.23687	0.37763
3967.30818	0.37654
3965.37949	0.36964
3963.45081	0.36121
3961.52212	0.35922
3959.59343	0.36494
3957.66475	0.37060
3955.73606	0.36904
3953.80737	0.36375
3951.87869	0.36160
3949.95000	0.36222
3948.02131	0.36325
3946.09263	0.36643
3944.16394	0.37133
3942.23525	0.37190
3940.30657	0.36672
3938.37788	0.36328
3936.44919	0.36348
3934.52051	0.36082
3932.59182	0.35704
3930.66313	0.35897
3928.73445	0.36317
3926.80576	0.36532
3924.87708	0.36791
3922.94839	0.36827
3921.01970	0.36281
3919.09102	0.35815
3917.16233	0.35919
3915.23364	0.36125
3913.30496	0.36020
3911.37627	0.35720
3909.44758	0.35638
3907.51890	0.36049
3905.59021	0.36393
3903.66152	0.36133
3901.73284	0.35894
3899.80415	0.35982
3897.87546	0.35944
3895.94678	0.35906
3894.01809	0.36003
3892.08940	0.36065
3890.16072	0.36201
3888.23203	0.36346
3886.30334	0.36334
3884.37466	0.36404
3882.44597	0.36721
3880.51729	0.36818
3878.58860	0.36460
3876.65991	0.36278
3874.73123	0.36354
3872.80254	0.36188
3870.87385	0.35965
3868.94517	0.36029
3867.01648	0.36187
3865.08779	0.36188
3863.15911	0.36120
3861.23042	0.36139
3859.30173	0.36257
3857.37305	0.36267
3855.44436	0.36115
3853.51567	0.36161
3851.58699	0.36357
3849.65830	0.36381
3847.72961	0.36269
3845.80093	0.36265
3843.87224	0.36389
3841.94355	0.36332
3840.01487	0.36127
3838.08618	0.35973
3836.15750	0.36038
3834.22881	0.36446
3832.30012	0.36661
3830.37144	0.36485
3828.44275	0.36452
3826.51406	0.36394
3824.58538	0.35949
3822.65669	0.35577
3820.72800	0.35603
3818.79932	0.35852
3816.87063	0.36198
3814.94194	0.36366
3813.01326	0.36268
3811.08457	0.36362
3809.15588	0.36737
3807.22720	0.37018
3805.29851	0.36983
3803.36982	0.36706
3801.44114	0.36563
3799.51245	0.36598
3797.58376	0.36533
3795.65508	0.36434
3793.72639	0.36375
3791.79771	0.36327
3789.86902	0.36209
3787.94033	0.35992
3786.01165	0.35821
3784.08296	0.35735
3782.15427	0.35736
3780.22559	0.35745
3778.29690	0.35831
3776.36821	0.36143
3774.43953	0.36426
3772.51084	0.36507
3770.58215	0.36417
3768.65347	0.36132
3766.72478	0.35744
3764.79609	0.35591
3762.86741	0.35853
3760.93872	0.36089
3759.01003	0.35983
3757.08135	0.35858
3755.15266	0.36007
3753.22397	0.36222
3751.29529	0.36191
3749.36660	0.36058
3747.43792	0.36038
3745.50923	0.35933
3743.58054	0.35627
3741.65186	0.35448
3739.72317	0.35419
3737.79448	0.35220
3735.86580	0.35001
3733.93711	0.34943
3732.00842	0.34928
3730.07974	0.35017
3728.15105	0.35169
3726.22236	0.35126
3724.29368	0.34911
3722.36499	0.34700
3720.43630	0.34493
3718.50762	0.34433
3716.57893	0.34612
3714.65024	0.34803
3712.72156	0.34998
3710.79287	0.35223
3708.86418	0.35219
3706.93550	0.34982
3705.00681	0.34748
3703.07812	0.34517
3701.14944	0.34382
3699.22075	0.34494
3697.29207	0.34497
3695.36338	0.34449
3693.43469	0.34852
3691.50601	0.35295
3689.57732	0.35269
3687.64863	0.35043
3685.71995	0.34926
3683.79126	0.34969
3681.86257	0.35051
3679.93389	0.35134
3678.00520	0.35175
3676.07651	0.34972
3674.14783	0.34637
3672.21914	0.34287
3670.29045	0.33978
3668.36177	0.33980
3666.43308	0.34165
3664.50439	0.34188
3662.57571	0.34003
3660.64702	0.33936
3658.71833	0.34198
3656.78965	0.34438
3654.86096	0.34356
3652.93228	0.34201
3651.00359	0.34374
3649.07490	0.34679
3647.14622	0.34710
3645.21753	0.34829
3643.28884	0.35133
3641.36016	0.35159
3639.43147	0.34879
3637.50278	0.34408
3635.57410	0.34004
3633.64541	0.34123
3631.71672	0.34586
3629.78804	0.34826
3627.85935	0.34658
3625.93066	0.34262
3624.00198	0.33974
3622.07329	0.34085
3620.14460	0.34480
3618.21592	0.34593
3616.28723	0.34198
3614.35854	0.33732
3612.42986	0.33603
3610.50117	0.33940
3608.57249	0.34482
3606.64380	0.34737
3604.71511	0.34701
3602.78643	0.34592
3600.85774	0.34441
3598.92905	0.34400
3597.00037	0.34543
3595.07168	0.34593
3593.14299	0.34329
3591.21431	0.34057
3589.28562	0.34262
3587.35693	0.34677
3585.42825	0.34522
3583.49956	0.33797
3581.57087	0.33208
3579.64219	0.33261
3577.71350	0.33807
3575.78481	0.34073
3573.85613	0.33746
3571.92744	0.33452
3569.99875	0.33679
3568.07007	0.34148
3566.14138	0.34458
3564.21270	0.34708
3562.28401	0.34921
3560.35532	0.34799
3558.42664	0.34616
3556.49795	0.34901
3554.56926	0.35347
3552.64058	0.35313
3550.71189	0.34837
3548.78320	0.34403
3546.85452	0.34167
3544.92583	0.34021
3542.99714	0.33887
3541.06846	0.33665
3539.13977	0.33611
3537.21108	0.33940
3535.28240	0.34277
3533.35371	0.34560
3531.42502	0.34815
3529.49634	0.34714
3527.56765	0.34481
3525.63896	0.34406
3523.71028	0.34267
3521.78159	0.34106
3519.85291	0.34138
3517.92422	0.34133
3515.99553	0.33965
3514.06685	0.33940
3512.13816	0.34193
3510.20947	0.34460
3508.28079	0.34418
3506.35210	0.34264
3504.42341	0.34367
3502.49473	0.34587
3500.56604	0.34766
3498.63735	0.34921
3496.70867	0.34919
3494.77998	0.34549
3492.85129	0.34007
3490.92261	0.33785
3488.99392	0.33824
3487.06523	0.33873
3485.13655	0.34059
3483.20786	0.34461
3481.27917	0.34845
3479.35049	0.35063
3477.42180	0.35203
3475.49312	0.34930
3473.56443	0.34237
3471.63574	0.33878
3469.70706	0.33850
3467.77837	0.33680
3465.84968	0.33516
3463.92100	0.33724
3461.99231	0.34385
3460.06362	0.35015
3458.13494	0.34972
3456.20625	0.34638
3454.27756	0.34860
3452.34888	0.35315
3450.42019	0.35283
3448.49150	0.34976
3446.56282	0.34784
3444.63413	0.34622
3442.70544	0.34585
3440.77676	0.34823
3438.84807	0.34987
3436.91938	0.34785
3434.99070	0.34385
3433.06201	0.34211
3431.13333	0.34374
3429.20464	0.34443
3427.27595	0.34307
3425.34727	0.34296
3423.41858	0.34247
3421.48989	0.33840
3419.56121	0.33563
3417.63252	0.34003
3415.70383	0.34686
3413.77515	0.34844
3411.84646	0.34595
3409.91777	0.34257
3407.98909	0.33957
3406.06040	0.34020
3404.13171	0.34237
3402.20303	0.34253
3400.27434	0.34354
3398.34565	0.34642
3396.41697	0.34928
3394.48828	0.35188
3392.55959	0.35357
3390.63091	0.35285
3388.70222	0.35066
3386.77354	0.34963
3384.84485	0.35001
3382.91616	0.35018
3380.98748	0.34969
3379.05879	0.34939
3377.13010	0.34640
3375.20142	0.34020
3373.27273	0.33849
3371.34404	0.34126
3369.41536	0.34237
3367.48667	0.34507
3365.55798	0.35053
3363.62930	0.35136
3361.70061	0.34957
3359.77192	0.35252
3357.84324	0.35520
3355.91455	0.35343
3353.98586	0.35231
3352.05718	0.35100
3350.12849	0.34815
3348.19980	0.34883
3346.27112	0.35188
3344.34243	0.35053
3342.41375	0.34469
3340.48506	0.34016
3338.55637	0.33972
3336.62769	0.34194
3334.69900	0.34458
3332.77031	0.34666
3330.84163	0.34859
3328.91294	0.34905
3326.98425	0.34879
3325.05557	0.35244
3323.12688	0.35731
3321.19819	0.35694
3319.26951	0.35436
3317.34082	0.35290
3315.41213	0.35057
3313.48345	0.34826
3311.55476	0.34658
3309.62607	0.34377
3307.69739	0.34039
3305.76870	0.33917
3303.84001	0.34246
3301.91133	0.34760
3299.98264	0.35015
3298.05396	0.35010
3296.12527	0.34978
3294.19658	0.35068
3292.26790	0.35095
3290.33921	0.34766
3288.41052	0.34389
3286.48184	0.34519
3284.55315	0.34891
3282.62446	0.34926
3280.69578	0.34785
3278.76709	0.34691
3276.83840	0.34640
3274.90972	0.34720
3272.98103	0.34773
3271.05234	0.34805
3269.12366	0.34976
3267.19497	0.35133
3265.26628	0.35114
3263.33760	0.34755
3261.40891	0.34249
3259.48022	0.34193
3257.55154	0.34571
3255.62285	0.34827
3253.69417	0.34875
3251.76548	0.34947
3249.83679	0.34858
3247.90811	0.34517
3245.97942	0.34389
3244.05073	0.34608
3242.12205	0.34812
3240.19336	0.34955
3238.26467	0.35098
3236.33599	0.35009
3234.40730	0.34671
3232.47861	0.34397
3230.54993	0.34424
3228.62124	0.34660
3226.69255	0.34850
3224.76387	0.34880
3222.83518	0.34935
3220.90649	0.35253
3218.97781	0.35350
3217.04912	0.34949
3215.12043	0.34790
3213.19175	0.35060
3211.26306	0.35288
3209.33437	0.35363
3207.40569	0.35186
3205.47700	0.34777
3203.54832	0.34507
3201.61963	0.34493
3199.69094	0.34537
3197.76226	0.34352
3195.83357	0.34012
3193.90488	0.34115
3191.97620	0.34561
3190.04751	0.34720
3188.11882	0.34689
3186.19014	0.34800
3184.26145	0.34811
3182.33276	0.34437
3180.40408	0.34226
3178.47539	0.34576
3176.54670	0.34892
3174.61802	0.34754
3172.68933	0.34398
3170.76064	0.34187
3168.83196	0.34219
3166.90327	0.34304
3164.97458	0.34319
3163.04590	0.34357
3161.11721	0.34511
3159.18853	0.34703
3157.25984	0.34622
3155.33115	0.34190
3153.40247	0.33984
3151.47378	0.34347
3149.54509	0.34764
3147.61641	0.34790
3145.68772	0.34698
3143.75903	0.34721
3141.83035	0.34660
3139.90166	0.34498
3137.97297	0.34363
3136.04429	0.34299
3134.11560	0.34345
3132.18691	0.34416
3130.25823	0.34423
3128.32954	0.34321
3126.40085	0.34260
3124.47217	0.34467
3122.54348	0.34754
3120.61479	0.34857
3118.68611	0.34837
3116.75742	0.34752
3114.82874	0.34562
3112.90005	0.34361
3110.97136	0.34272
3109.04268	0.34289
3107.11399	0.34347
3105.18530	0.34297
3103.25662	0.34220
3101.32793	0.34430
3099.39924	0.34723
3097.47056	0.34660
3095.54187	0.34423
3093.61318	0.34419
3091.68450	0.34627
3089.75581	0.34700
3087.82712	0.34453
3085.89844	0.34210
3083.96975	0.34212
3082.04106	0.34165
3080.11238	0.34038
3078.18369	0.33993
3076.25500	0.33888
3074.32632	0.33936
3072.39763	0.34355
3070.46895	0.34665
3068.54026	0.34537
3066.61157	0.34222
3064.68289	0.34153
3062.75420	0.34482
3060.82551	0.34815
3058.89683	0.34798
3056.96814	0.34568
3055.03945	0.34428
3053.11077	0.34482
3051.18208	0.34603
3049.25339	0.34731
3047.32471	0.34767
3045.39602	0.34557
3043.46733	0.34430
3041.53865	0.34611
3039.60996	0.34609
3037.68127	0.34280
3035.75259	0.34122
3033.82390	0.34381
3031.89521	0.34752
3029.96653	0.34738
3028.03784	0.34368
3026.10916	0.34178
3024.18047	0.34355
3022.25178	0.34460
3020.32310	0.34183
3018.39441	0.33917
3016.46572	0.34074
3014.53704	0.34382
3012.60835	0.34488
3010.67966	0.34531
3008.75098	0.34575
3006.82229	0.34425
3004.89360	0.34089
3002.96492	0.33809
3001.03623	0.33807
2999.10754	0.34006
2997.17886	0.34211
2995.25017	0.34407
2993.32148	0.34589
2991.39280	0.34652
2989.46411	0.34513
2987.53542	0.34260
2985.60674	0.34119
2983.67805	0.34359
2981.74937	0.34810
2979.82068	0.34868
2977.89199	0.34577
2975.96331	0.34496
2974.03462	0.34595
2972.10593	0.34510
2970.17725	0.34361
2968.24856	0.34375
2966.31987	0.34566
2964.39119	0.34813
2962.46250	0.34648
2960.53381	0.34134
2958.60513	0.33902
2956.67644	0.33971
2954.74775	0.34169
2952.81907	0.34488
2950.89038	0.34577
2948.96169	0.34364
2947.03301	0.34270
2945.10432	0.34264
2943.17563	0.34216
2941.24695	0.34335
2939.31826	0.34554
2937.38958	0.34535
2935.46089	0.34260
2933.53220	0.34086
2931.60352	0.34222
2929.67483	0.34560
2927.74614	0.34977
2925.81746	0.35401
2923.88877	0.35541
2921.96008	0.35171
2920.03140	0.34663
2918.10271	0.34383
2916.17402	0.34375
2914.24534	0.34659
2912.31665	0.34982
2910.38796	0.35043
2908.45928	0.34947
2906.53059	0.34924
2904.60190	0.34958
2902.67322	0.34889
2900.74453	0.34676
2898.81584	0.34498
2896.88716	0.34548
2894.95847	0.34759
2893.02979	0.34947
2891.10110	0.35012
2889.17241	0.34912
2887.24373	0.34730
2885.31504	0.34601
2883.38635	0.34503
2881.45767	0.34402
2879.52898	0.34473
2877.60029	0.34805
2875.67161	0.35080
2873.74292	0.35046
2871.81423	0.34995
2869.88555	0.35127
2867.95686	0.35121
2866.02817	0.34817
2864.09949	0.34480
2862.17080	0.34236
2860.24211	0.34135
2858.31343	0.34260
2856.38474	0.34394
2854.45605	0.34372
2852.52737	0.34355
2850.59868	0.34393
2848.67000	0.34352
2846.74131	0.34269
2844.81262	0.34280
2842.88394	0.34417
2840.95525	0.34538
2839.02656	0.34437
2837.09788	0.34274
2835.16919	0.34326
2833.24050	0.34532
2831.31182	0.34634
2829.38313	0.34481
2827.45444	0.34365
2825.52576	0.34508
2823.59707	0.34593
2821.66838	0.34531
2819.73970	0.34571
2817.81101	0.34681
2815.88232	0.34673
2813.95364	0.34571
2812.02495	0.34536
2810.09626	0.34657
2808.16758	0.34800
2806.23889	0.34670
2804.31021	0.34367
2802.38152	0.34216
2800.45283	0.34143
2798.52415	0.34148
2796.59546	0.34359
2794.66677	0.34585
2792.73809	0.34781
2790.80940	0.34985
2788.88071	0.35029
2786.95203	0.34911
2785.02334	0.34747
2783.09465	0.34638
2781.16597	0.34697
2779.23728	0.34726
2777.30859	0.34437
2775.37991	0.34078
2773.45122	0.33965
2771.52253	0.34031
2769.59385	0.34257
2767.66516	0.34571
2765.73647	0.34750
2763.80779	0.34630
2761.87910	0.34248
2759.95042	0.34009
2758.02173	0.34098
2756.09304	0.34259
2754.16436	0.34326
2752.23567	0.34275
2750.30698	0.34184
2748.37830	0.34209
2746.44961	0.34366
2744.52092	0.34496
2742.59224	0.34496
2740.66355	0.34440
2738.73486	0.34393
2736.80618	0.34339
2734.87749	0.34358
2732.94880	0.34420
2731.02012	0.34296
2729.09143	0.34130
2727.16274	0.34232
2725.23406	0.34457
2723.30537	0.34542
2721.37668	0.34513
2719.44800	0.34539
2717.51931	0.34597
2715.59062	0.34499
2713.66194	0.34265
2711.73325	0.34143
2709.80457	0.34176
2707.87588	0.34247
2705.94719	0.34404
2704.01851	0.34644
2702.08982	0.34761
2700.16113	0.34657
2698.23245	0.34559
2696.30376	0.34656
2694.37507	0.34748
2692.44639	0.34638
2690.51770	0.34476
2688.58901	0.34401
2686.66033	0.34303
2684.73164	0.34190
2682.80295	0.34205
2680.87427	0.34299
2678.94558	0.34243
2677.01689	0.34018
2675.08821	0.34032
2673.15952	0.34484
2671.23083	0.34940
2669.30215	0.34972
2667.37346	0.34670
2665.44478	0.34341
2663.51609	0.34159
2661.58740	0.34233
2659.65872	0.34396
2657.73003	0.34323
2655.80134	0.34148
2653.87266	0.34134
2651.94397	0.34212
2650.01528	0.34322
2648.08660	0.34377
2646.15791	0.34285
2644.22922	0.34171
2642.30054	0.33992
2640.37185	0.33710
2638.44316	0.33652
2636.51448	0.34006
2634.58579	0.34437
2632.65710	0.34525
2630.72842	0.34387
2628.79973	0.34435
2626.87104	0.34650
2624.94236	0.34681
2623.01367	0.34594
2621.08499	0.34588
2619.15630	0.34500
2617.22761	0.34370
2615.29893	0.34411
2613.37024	0.34496
2611.44155	0.34415
2609.51287	0.34310
2607.58418	0.34287
2605.65549	0.34139
2603.72681	0.34004
2601.79812	0.34146
2599.86943	0.34354
2597.94075	0.34401
2596.01206	0.34342
2594.08337	0.34255
2592.15469	0.34210
2590.22600	0.34289
2588.29731	0.34410
2586.36863	0.34401
2584.43994	0.34276
2582.51125	0.34206
2580.58257	0.34093
2578.65388	0.33869
2576.72520	0.33877
2574.79651	0.34147
2572.86782	0.34422
2570.93914	0.34661
2569.01045	0.34878
2567.08176	0.34971
2565.15308	0.34707
2563.22439	0.34234
2561.29570	0.34055
2559.36702	0.34194
2557.43833	0.34348
2555.50964	0.34420
2553.58096	0.34434
2551.65227	0.34413
2549.72358	0.34296
2547.79490	0.34073
2545.86621	0.33896
2543.93752	0.33837
2542.00884	0.33955
2540.08015	0.34198
2538.15146	0.34295
2536.22278	0.34272
2534.29409	0.34276
2532.36541	0.34219
2530.43672	0.34215
2528.50803	0.34364
2526.57935	0.34390
2524.65066	0.34307
2522.72197	0.34390
2520.79329	0.34494
2518.86460	0.34483
2516.93591	0.34491
2515.00723	0.34492
2513.07854	0.34365
2511.14985	0.34135
2509.22117	0.34044
2507.29248	0.34127
2505.36379	0.34096
2503.43511	0.34047
2501.50642	0.34166
2499.57773	0.34218
2497.64905	0.34165
2495.72036	0.34202
2493.79167	0.34249
2491.86299	0.34098
2489.93430	0.33842
2488.00562	0.33783
2486.07693	0.34061
2484.14824	0.34422
2482.21956	0.34513
2480.29087	0.34443
2478.36218	0.34376
2476.43350	0.34221
2474.50481	0.34064
2472.57612	0.34035
2470.64744	0.34079
2468.71875	0.34124
2466.79006	0.34166
2464.86138	0.34190
2462.93269	0.34187
2461.00400	0.34264
2459.07532	0.34430
2457.14663	0.34506
2455.21794	0.34405
2453.28926	0.34218
2451.36057	0.34110
2449.43188	0.34181
2447.50320	0.34317
2445.57451	0.34288
2443.64583	0.34009
2441.71714	0.33734
2439.78845	0.33816
2437.85977	0.34124
2435.93108	0.34269
2434.00239	0.34238
2432.07371	0.34196
2430.14502	0.34082
2428.21633	0.33929
2426.28765	0.33940
2424.35896	0.34020
2422.43027	0.34016
2420.50159	0.34030
2418.57290	0.34158
2416.64421	0.34344
2414.71553	0.34526
2412.78684	0.34660
2410.85815	0.34609
2408.92947	0.34348
2407.00078	0.34039
2405.07209	0.33888
2403.14341	0.34006
2401.21472	0.34191
2399.28604	0.34223
2397.35735	0.34258
2395.42866	0.34374
2393.49998	0.34350
2391.57129	0.34228
2389.64260	0.34171
2387.71392	0.34122
2385.78523	0.34089
2383.85654	0.34074
2381.92786	0.34055
2379.99917	0.34066
2378.07048	0.34108
2376.14180	0.34151
2374.21311	0.34156
2372.28442	0.34157
2370.35574	0.34214
2368.42705	0.34343
2366.49836	0.34429
2364.56968	0.34274
2362.64099	0.34039
2360.71230	0.33951
2358.78362	0.33909
2356.85493	0.33920
2354.92625	0.34075
2352.99756	0.34229
2351.06887	0.34309
2349.14019	0.34354
2347.21150	0.34292
2345.28281	0.34167
2343.35413	0.34130
2341.42544	0.34159
2339.49675	0.34182
2337.56807	0.34138
2335.63938	0.34037
2333.71069	0.34099
2331.78201	0.34373
2329.85332	0.34566
2327.92463	0.34508
2325.99595	0.34294
2324.06726	0.34217
2322.13857	0.34447
2320.20989	0.34667
2318.28120	0.34638
2316.35251	0.34485
2314.42383	0.34276
2312.49514	0.34082
2310.56646	0.34021
2308.63777	0.34075
2306.70908	0.34214
2304.78040	0.34391
2302.85171	0.34493
2300.92302	0.34513
2298.99434	0.34468
2297.06565	0.34458
2295.13696	0.34527
2293.20828	0.34410
2291.27959	0.34105
2289.35090	0.33968
2287.42222	0.34095
2285.49353	0.34277
2283.56484	0.34379
2281.63616	0.34535
2279.70747	0.34812
2277.77878	0.34943
2275.85010	0.34690
2273.92141	0.34251
2271.99272	0.34012
2270.06404	0.34097
2268.13535	0.34334
2266.20667	0.34469
2264.27798	0.34490
2262.34929	0.34542
2260.42061	0.34623
2258.49192	0.34607
2256.56323	0.34368
2254.63455	0.33978
2252.70586	0.33765
2250.77717	0.33836
2248.84849	0.33912
2246.91980	0.33907
2244.99111	0.34015
2243.06243	0.34224
2241.13374	0.34315
2239.20505	0.34213
2237.27637	0.34014
2235.34768	0.33849
2233.41899	0.33843
2231.49031	0.33971
2229.56162	0.34099
2227.63293	0.34125
2225.70425	0.34051
2223.77556	0.34022
2221.84687	0.34068
2219.91819	0.34104
2217.98950	0.34069
2216.06082	0.33977
2214.13213	0.34061
2212.20344	0.34383
2210.27476	0.34585
2208.34607	0.34494
2206.41738	0.34472
2204.48870	0.34715
2202.56001	0.34910
2200.63132	0.34793
2198.70264	0.34427
2196.77395	0.34014
2194.84526	0.33722
2192.91658	0.33691
2190.98789	0.33890
2189.05920	0.34068
2187.13052	0.34055
2185.20183	0.33933
2183.27314	0.33946
2181.34446	0.34141
2179.41577	0.34292
2177.48708	0.34314
2175.55840	0.34223
2173.62971	0.34047
2171.70103	0.34041
2169.77234	0.34267
2167.84365	0.34348
2165.91497	0.34152
2163.98628	0.33975
2162.05759	0.33945
2160.12891	0.33916
2158.20022	0.33951
2156.27153	0.34121
2154.34285	0.34191
2152.41416	0.34123
2150.48547	0.34082
2148.55679	0.34089
2146.62810	0.34083
2144.69941	0.33981
2142.77073	0.33845
2140.84204	0.33845
2138.91335	0.33919
2136.98467	0.33913
2135.05598	0.33940
2133.12729	0.34078
2131.19861	0.34068
2129.26992	0.33915
2127.34124	0.33946
2125.41255	0.34020
2123.48386	0.33906
2121.55518	0.33835
2119.62649	0.33913
2117.69780	0.34060
2115.76912	0.34258
2113.84043	0.34383
2111.91174	0.34388
2109.98306	0.34373
2108.05437	0.34324
2106.12568	0.34234
2104.19700	0.34262
2102.26831	0.34504
2100.33962	0.34786
2098.41094	0.34855
2096.48225	0.34708
2094.55356	0.34505
2092.62488	0.34349
2090.69619	0.34252
2088.76750	0.34183
2086.83882	0.34167
2084.91013	0.34215
2082.98145	0.34264
2081.05276	0.34237
2079.12407	0.34214
2077.19539	0.34314
2075.26670	0.34436
2073.33801	0.34416
2071.40933	0.34165
2069.48064	0.33842
2067.55195	0.33933
2065.62327	0.34452
2063.69458	0.34740
2061.76589	0.34506
2059.83721	0.34192
2057.90852	0.34158
2055.97983	0.34246
2054.05115	0.34316
2052.12246	0.34436
2050.19377	0.34586
2048.26509	0.34711
2046.33640	0.34687
2044.40771	0.34478
2042.47903	0.34242
2040.55034	0.34016
2038.62166	0.33892
2036.69297	0.33985
2034.76428	0.34083
2032.83560	0.34017
2030.90691	0.33984
2028.97822	0.34165
2027.04954	0.34416
2025.12085	0.34518
2023.19216	0.34407
2021.26348	0.34186
2019.33479	0.34116
2017.40610	0.34260
2015.47742	0.34326
2013.54873	0.34168
2011.62004	0.33950
2009.69136	0.33885
2007.76267	0.33979
2005.83398	0.34041
2003.90530	0.34112
2001.97661	0.34270
2000.04792	0.34359
1998.11924	0.34357
1996.19055	0.34253
1994.26187	0.33999
1992.33318	0.33834
1990.40449	0.33930
1988.47581	0.34138
1986.54712	0.34250
1984.61843	0.34241
1982.68975	0.34290
1980.76106	0.34318
1978.83237	0.34108
1976.90369	0.33869
1974.97500	0.33803
1973.04631	0.33838
1971.11763	0.33941
1969.18894	0.34151
1967.26025	0.34368
1965.33157	0.34329
1963.40288	0.34067
1961.47419	0.33910
1959.54551	0.33902
1957.61682	0.33888
1955.68813	0.33953
1953.75945	0.34172
1951.83076	0.34351
1949.90208	0.34350
1947.97339	0.34177
1946.04470	0.33949
1944.11602	0.33910
1942.18733	0.34147
1940.25864	0.34376
1938.32996	0.34374
1936.40127	0.34320
1934.47258	0.34343
1932.54390	0.34345
1930.61521	0.34269
1928.68652	0.34160
1926.75784	0.34073
1924.82915	0.34022
1922.90046	0.34099
1920.97178	0.34265
1919.04309	0.34252
1917.11440	0.34110
1915.18572	0.34070
1913.25703	0.34080
1911.32834	0.34069
1909.39966	0.34114
1907.47097	0.34220
1905.54229	0.34323
1903.61360	0.34394
1901.68491	0.34373
1899.75623	0.34259
1897.82754	0.34166
1895.89885	0.34169
1893.97017	0.34269
1892.04148	0.34375
1890.11279	0.34334
1888.18411	0.34150
1886.25542	0.34062
1884.32673	0.34191
1882.39805	0.34369
1880.46936	0.34449
1878.54067	0.34383
1876.61199	0.34232
1874.68330	0.34146
1872.75461	0.34081
1870.82593	0.33916
1868.89724	0.33765
1866.96855	0.33844
1865.03987	0.34040
1863.11118	0.34039
1861.18250	0.33940
1859.25381	0.34052
1857.32512	0.34238
1855.39644	0.34253
1853.46775	0.34202
1851.53906	0.34228
1849.61038	0.34373
1847.68169	0.34513
1845.75300	0.34462
1843.82432	0.34335
1841.89563	0.34337
1839.96694	0.34366
1838.03826	0.34290
1836.10957	0.34248
1834.18088	0.34360
1832.25220	0.34461
1830.32351	0.34360
1828.39482	0.34201
1826.46614	0.34212
1824.53745	0.34371
1822.60876	0.34555
1820.68008	0.34557
1818.75139	0.34340
1816.82271	0.34249
1814.89402	0.34331
1812.96533	0.34292
1811.03665	0.34177
1809.10796	0.34149
1807.17927	0.34161
1805.25059	0.34206
1803.32190	0.34334
1801.39321	0.34481
1799.46453	0.34454
1797.53584	0.34259
1795.60715	0.34118
1793.67847	0.34078
1791.74978	0.34102
1789.82109	0.34150
1787.89241	0.34133
1785.96372	0.34110
1784.03503	0.34145
1782.10635	0.34133
1780.17766	0.34089
1778.24897	0.34078
1776.32029	0.34035
1774.39160	0.34067
1772.46292	0.34175
1770.53423	0.34134
1768.60554	0.34057
1766.67686	0.34104
1764.74817	0.34217
1762.81948	0.34396
1760.89080	0.34534
1758.96211	0.34458
1757.03342	0.34244
1755.10474	0.34085
1753.17605	0.34049
1751.24736	0.34095
1749.31868	0.34110
1747.38999	0.34053
1745.46130	0.34066
1743.53262	0.34260
1741.60393	0.34511
1739.67524	0.34603
1737.74656	0.34529
1735.81787	0.34512
1733.88918	0.34599
1731.96050	0.34512
1730.03181	0.34223
1728.10312	0.34061
1726.17444	0.34155
1724.24575	0.34423
1722.31707	0.34710
1720.38838	0.34807
1718.45969	0.34610
1716.53101	0.34297
1714.60232	0.34313
1712.67363	0.34731
1710.74495	0.35082
1708.81626	0.35065
1706.88757	0.34793
1704.95889	0.34472
1703.03020	0.34213
1701.10151	0.34027
1699.17283	0.33964
1697.24414	0.34047
1695.31545	0.34179
1693.38677	0.34353
1691.45808	0.34457
1689.52939	0.34231
1687.60071	0.33899
1685.67202	0.33841
1683.74333	0.33959
1681.81465	0.34085
1679.88596	0.34151
1677.95728	0.34098
1676.02859	0.34066
1674.09990	0.34213
1672.17122	0.34357
1670.24253	0.34327
1668.31384	0.34358
1666.38516	0.34497
1664.45647	0.34456
1662.52778	0.34291
1660.59910	0.34174
1658.67041	0.34127
1656.74172	0.34267
1654.81304	0.34458
1652.88435	0.34444
1650.95566	0.34394
1649.02698	0.34538
1647.09829	0.34777
1645.16960	0.34824
1643.24092	0.34640
1641.31223	0.34446
1639.38354	0.34318
1637.45486	0.34279
1635.52617	0.34306
1633.59749	0.34296
1631.66880	0.34377
1629.74011	0.34627
1627.81143	0.34824
1625.88274	0.34834
1623.95405	0.34716
1622.02537	0.34518
1620.09668	0.34286
1618.16799	0.34078
1616.23931	0.33995
1614.31062	0.34109
1612.38193	0.34314
1610.45325	0.34408
1608.52456	0.34264
1606.59587	0.34048
1604.66719	0.34012
1602.73850	0.34149
1600.80981	0.34349
1598.88113	0.34462
1596.95244	0.34362
1595.02375	0.34184
1593.09507	0.34148
1591.16638	0.34251
1589.23770	0.34369
1587.30901	0.34443
1585.38032	0.34427
1583.45164	0.34212
1581.52295	0.33894
1579.59426	0.33816
1577.66558	0.33967
1575.73689	0.34029
1573.80820	0.33959
1571.87952	0.33979
1569.95083	0.34192
1568.02214	0.34351
1566.09346	0.34336
1564.16477	0.34381
1562.23608	0.34539
1560.30740	0.34654
1558.37871	0.34591
1556.45002	0.34391
1554.52134	0.34253
1552.59265	0.34171
1550.66396	0.34059
1548.73528	0.34104
1546.80659	0.34392
1544.87791	0.34561
1542.94922	0.34400
1541.02053	0.34206
1539.09185	0.34239
1537.16316	0.34380
1535.23447	0.34381
1533.30579	0.34240
1531.37710	0.34174
1529.44841	0.34217
1527.51973	0.34249
1525.59104	0.34293
1523.66235	0.34341
1521.73367	0.34269
1519.80498	0.34135
1517.87629	0.34118
1515.94761	0.34219
1514.01892	0.34313
1512.09023	0.34281
1510.16155	0.34097
1508.23286	0.33914
1506.30417	0.33872
1504.37549	0.33909
1502.44680	0.33998
1500.51812	0.34128
1498.58943	0.34278
1496.66074	0.34477
1494.73206	0.34544
1492.80337	0.34403
1490.87468	0.34239
1488.94600	0.34105
1487.01731	0.33949
1485.08862	0.33789
1483.15994	0.33803
1481.23125	0.34055
1479.30256	0.34284
1477.37388	0.34306
1475.44519	0.34253
1473.51650	0.34214
1471.58782	0.34064
1469.65913	0.33942
1467.73044	0.34037
1465.80176	0.34186
1463.87307	0.34236
1461.94438	0.34203
1460.01570	0.34139
1458.08701	0.34042
1456.15833	0.33930
1454.22964	0.33865
1452.30095	0.33923
1450.37227	0.34195
1448.44358	0.34516
1446.51489	0.34638
1444.58621	0.34602
1442.65752	0.34557
1440.72883	0.34509
1438.80015	0.34404
1436.87146	0.34201
1434.94277	0.33952
1433.01409	0.33927
1431.08540	0.34144
1429.15671	0.34208
1427.22803	0.34119
1425.29934	0.34283
1423.37065	0.34557
1421.44197	0.34473
1419.51328	0.34167
1417.58459	0.34066
1415.65591	0.34190
1413.72722	0.34235
1411.79854	0.34103
1409.86985	0.34006
1407.94116	0.34011
1406.01248	0.34081
1404.08379	0.34178
1402.15510	0.34225
1400.22642	0.34207
1398.29773	0.34114
1396.36904	0.34036
1394.44036	0.34099
1392.51167	0.34177
1390.58298	0.34098
1388.65430	0.33965
1386.72561	0.33878
1384.79692	0.33792
1382.86824	0.33768
1380.93955	0.33857
1379.01086	0.33996
1377.08218	0.34137
1375.15349	0.34241
1373.22480	0.34276
1371.29612	0.34258
1369.36743	0.34192
1367.43875	0.34109
1365.51006	0.34118
1363.58137	0.34222
1361.65269	0.34324
1359.72400	0.34348
1357.79531	0.34268
1355.86663	0.34129
1353.93794	0.34006
1352.00925	0.33976
1350.08057	0.33944
1348.15188	0.33767
1346.22319	0.33607
1344.29451	0.33647
1342.36582	0.33830
1340.43713	0.34100
1338.50845	0.34284
1336.57976	0.34150
1334.65107	0.33831
1332.72239	0.33541
1330.79370	0.33427
1328.86501	0.33671
1326.93633	0.34063
1325.00764	0.34202
1323.07896	0.34087
1321.15027	0.34004
1319.22158	0.34022
1317.29290	0.33871
1315.36421	0.33585
1313.43552	0.33556
1311.50684	0.33703
1309.57815	0.33741
1307.64946	0.33779
1305.72078	0.33856
1303.79209	0.33863
1301.86340	0.33860
1299.93472	0.33911
1298.00603	0.34023
1296.07734	0.34160
1294.14866	0.34207
1292.21997	0.34059
1290.29128	0.33804
1288.36260	0.33619
1286.43391	0.33544
1284.50522	0.33583
1282.57654	0.33654
1280.64785	0.33713
1278.71917	0.33871
1276.79048	0.33997
1274.86179	0.33999
1272.93311	0.34066
1271.00442	0.34124
1269.07573	0.34050
1267.14705	0.34097
1265.21836	0.34330
1263.28967	0.34362
1261.36099	0.34065
1259.43230	0.33829
1257.50361	0.33912
1255.57493	0.34034
1253.64624	0.33948
1251.71755	0.33860
1249.78887	0.33872
1247.86018	0.33855
1245.93149	0.33844
1244.00281	0.33889
1242.07412	0.33982
1240.14543	0.34042
1238.21675	0.33895
1236.28806	0.33660
1234.35937	0.33642
1232.43069	0.33839
1230.50200	0.34104
1228.57332	0.34371
1226.64463	0.34455
1224.71594	0.34268
1222.78726	0.34044
1220.85857	0.33950
1218.92988	0.33925
1217.00120	0.33878
1215.07251	0.33790
1213.14382	0.33756
1211.21514	0.33766
1209.28645	0.33722
1207.35776	0.33745
1205.42908	0.33914
1203.50039	0.34053
1201.57170	0.34126
1199.64302	0.34175
1197.71433	0.34092
1195.78564	0.33994
1193.85696	0.34070
1191.92827	0.34172
1189.99958	0.33967
1188.07090	0.33476
1186.14221	0.33363
1184.21353	0.33887
1182.28484	0.34333
1180.35615	0.34232
1178.42747	0.33993
1176.49878	0.34087
1174.57009	0.34255
1172.64141	0.34060
1170.71272	0.33744
1168.78403	0.33735
1166.85535	0.33936
1164.92666	0.34035
1162.99797	0.34065
1161.06929	0.34133
1159.14060	0.34195
1157.21191	0.34228
1155.28323	0.34197
1153.35454	0.34283
1151.42585	0.34660
1149.49717	0.34966
1147.56848	0.34720
1145.63979	0.34119
1143.71111	0.33761
1141.78242	0.33747
1139.85374	0.33910
1137.92505	0.34177
1135.99636	0.34335
1134.06768	0.34286
1132.13899	0.34184
1130.21030	0.34122
1128.28162	0.34081
1126.35293	0.33983
1124.42424	0.33698
1122.49556	0.33489
1120.56687	0.33682
1118.63818	0.33866
1116.70950	0.33604
1114.78081	0.33171
1112.85212	0.33106
1110.92344	0.33539
1108.99475	0.33980
1107.06606	0.34051
1105.13738	0.34015
1103.20869	0.34117
1101.28000	0.34241
1099.35132	0.34420
1097.42263	0.34658
1095.49395	0.34667
1093.56526	0.34320
1091.63657	0.33953
1089.70789	0.33921
1087.77920	0.33910
1085.85051	0.33670
1083.92183	0.33566
1081.99314	0.33604
1080.06445	0.33469
1078.13577	0.33266
1076.20708	0.33434
1074.27839	0.34086
1072.34971	0.34579
1070.42102	0.34378
1068.49233	0.33919
1066.56365	0.33710
1064.63496	0.33681
1062.70627	0.33720
1060.77759	0.33832
1058.84890	0.33985
1056.92021	0.34125
1054.99153	0.34219
1053.06284	0.34203
1051.13416	0.34091
1049.20547	0.34061
1047.27678	0.34140
1045.34810	0.34136
1043.41941	0.33984
1041.49072	0.33845
1039.56204	0.33792
1037.63335	0.33932
1035.70466	0.34192
1033.77598	0.34060
1031.84729	0.33663
1029.91860	0.33629
1027.98992	0.33838
1026.06123	0.33845
1024.13254	0.33681
1022.20386	0.33679
1020.27517	0.33921
1018.34648	0.34174
1016.41780	0.34379
1014.48911	0.34622
1012.56042	0.34669
1010.63174	0.34231
1008.70305	0.33625
1006.77437	0.33432
1004.84568	0.33698
1002.91699	0.33997
1000.98831	0.34094
999.05962	0.34160
997.13093	0.34277
995.20225	0.34330
993.27356	0.34293
991.34487	0.34029
989.41619	0.33472
987.48750	0.33083
985.55881	0.33242
983.63013	0.33556
981.70144	0.33507
979.77275	0.33250
977.84407	0.33139
975.91538	0.33234
973.98669	0.33428
972.05801	0.33587
970.12932	0.33684
968.20063	0.33570
966.27195	0.33275
964.34326	0.33275
962.41458	0.33494
960.48589	0.33574
958.55720	0.33721
956.62852	0.33853
954.69983	0.33639
952.77114	0.33475
950.84246	0.33661
948.91377	0.33769
946.98508	0.33682
945.05640	0.33594
943.12771	0.33480
941.19902	0.33411
939.27034	0.33287
937.34165	0.32967
935.41296	0.32861
933.48428	0.33226
931.55559	0.33531
929.62690	0.33394
927.69822	0.33238
925.76953	0.33306
923.84084	0.33399
921.91216	0.33446
919.98347	0.33435
918.05479	0.33338
916.12610	0.33277
914.19741	0.33384
912.26873	0.33520
910.34004	0.33562
908.41135	0.33588
906.48267	0.33605
904.55398	0.33597
902.62529	0.33538
900.69661	0.33543
898.76792	0.33647
896.83923	0.33602
894.91055	0.33314
892.98186	0.32946
891.05317	0.32831
889.12449	0.32977
887.19580	0.32995
885.26711	0.32984
883.33843	0.33236
881.40974	0.33639
879.48105	0.33936
877.55237	0.33879
875.62368	0.33636
873.69500	0.33561
871.76631	0.33450
869.83762	0.33211
867.90894	0.33070
865.98025	0.33041
864.05156	0.33127
862.12288	0.33111
860.19419	0.32853
858.26550	0.32827
856.33682	0.33083
854.40813	0.33102
852.47944	0.32917
850.55076	0.32778
848.62207	0.32634
846.69338	0.32512
844.76470	0.32609
842.83601	0.32961
840.90732	0.33119
838.97864	0.32900
837.04995	0.32925
835.12126	0.33204
833.19258	0.32949
831.26389	0.32381
829.33521	0.32323
827.40652	0.32767
825.47783	0.33355
823.54915	0.33683
821.62046	0.33547
819.69177	0.33351
817.76309	0.33281
815.83440	0.33354
813.90571	0.33597
811.97703	0.33589
810.04834	0.33181
808.11965	0.32765
806.19097	0.32540
804.26228	0.32472
802.33359	0.32649
800.40491	0.32997
798.47622	0.33039
796.54753	0.32720
794.61885	0.32506
792.69016	0.32488
790.76147	0.32626
788.83279	0.32765
786.90410	0.32503
784.97542	0.32119
783.04673	0.32178
781.11804	0.32596
779.18936	0.33096
777.26067	0.33320
775.33198	0.32969
773.40330	0.32447
771.47461	0.32194
769.54592	0.32152
767.61724	0.32270
765.68855	0.32183
763.75986	0.31496
761.83118	0.30697
759.90249	0.30266
757.97380	0.30189
756.04512	0.30397
754.11643	0.30574
752.18774	0.30586
750.25906	0.30650
748.33037	0.30811
746.40168	0.30983
744.47300	0.31116
742.54431	0.31035
740.61562	0.30456
738.68694	0.29775
736.75825	0.29532
734.82957	0.29301
732.90088	0.28866
730.97219	0.28696
729.04351	0.28702
727.11482	0.28411
725.18613	0.28289
723.25745	0.28994
721.32876	0.29668
719.40007	0.29560
717.47139	0.29383
715.54270	0.29377
713.61401	0.29475
711.68533	0.30149
709.75664	0.30687
707.82795	0.30133
705.89927	0.29355
703.97058	0.29098
702.04189	0.29037
700.11321	0.29178
698.18452	0.29483
696.25583	0.29326
694.32715	0.28722
692.39846	0.28455
690.46978	0.28698
688.54109	0.29379
686.61240	0.30164
684.68372	0.30254
682.75503	0.29979
680.82634	0.29643
678.89766	0.28806
676.96897	0.28331
675.04028	0.28922
673.11160	0.29657
671.18291	0.29804
669.25422	0.29620
667.32554	0.29246
665.39685	0.28661
663.46816	0.28279
661.53948	0.28113
659.61079	0.27995
657.68210	0.28335
655.75342	0.28886
653.82473	0.29067
651.89604	0.28929
649.96736	0.28433
648.03867	0.27741
646.10999	0.27650
644.18130	0.28449
642.25261	0.29200
640.32393	0.29394
638.39524	0.29799
636.46655	0.29973
634.53787	0.28810
632.60918	0.27344
630.68049	0.27192
628.75181	0.28616
626.82312	0.30235
624.89443	0.30267
622.96575	0.29388
621.03706	0.29060
619.10837	0.28845
617.17969	0.28563
615.25100	0.28833
613.32231	0.29604
611.39363	0.30108
609.46494	0.29982
607.53625	0.29673
605.60757	0.28911
603.67888	0.27365
601.75020	0.26421
599.82151	0.27188
597.89282	0.28283
595.96414	0.28059
594.03545	0.27328
592.10676	0.27353
590.17808	0.27819
588.24939	0.27975
586.32070	0.27728
584.39202	0.27503
582.46333	0.27256
580.53464	0.26637
578.60596	0.25594
576.67727	0.25333
574.74858	0.26480
572.81990	0.26729
570.89121	0.25560
568.96252	0.24988
567.03384	0.24668
565.10515	0.23324
563.17646	0.21863
561.24778	0.21879
559.31909	0.22773
557.39041	0.23107
555.46172	0.23121
553.53303	0.22789
551.60435	0.21514
549.67566	0.20061
547.74697	0.19646
545.81829	0.20026
543.88960	0.19033
541.96091	0.17713
540.03223	0.19981
538.10354	0.20835
536.17485	0.12394
534.24617	0.00576
532.31748	-0.04516
530.38879	-0.01236
528.46011	0.00524
526.53142	0.00731
524.60273	0.10728
522.67405	0.22702
520.74536	0.24221
518.81667	0.25360
516.88799	0.35184
514.95930	0.45667
513.03062	0.50877
511.10193	0.50734
509.17324	0.40102
507.24456	0.16332
505.31587	-0.10035
503.38718	-0.22699
501.45850	-0.07395
499.52981	0.84473
497.60112	3.68598
495.67244	2.63376
493.74375	2.02455
491.81506	2.45937
489.88638	2.00759
487.95769	1.34311
486.02900	0.82303
484.10032	0.58638
482.17163	0.41302
480.24294	0.16903
478.31426	0.19121
476.38557	0.34545
474.45688	0.48034
472.52820	0.48034
470.59951	-3.37027
468.67083	-3.37027
466.74214	2.13171
464.81345	0.62524
462.88477	0.62428
460.95608	0.93955
459.02739	0.60059
457.09871	0.44624
455.17002	0.78592
453.24133	1.03301
451.31265	0.68921
449.38396	0.08412
447.45527	0.16710
445.52659	9.35147
443.59790	-3.47668
441.66921	-3.94032
439.74053	-3.94032
437.81184	2.13327
435.88315	1.66090
433.95447	5.87285
432.02578	3.21070
430.09709	1.45844
428.16841	0.64188
426.23972	0.08650
424.31104	-0.42462
422.38235	-1.62219
420.45366	-1.62219
418.52498	0.30039
416.59629	0.47074
414.66760	0.27256
412.73892	0.20680
410.81023	0.26142
408.88154	0.29665
406.95286	0.35374
405.02417	0.33716
403.09548	0.22585
401.16680	-1.99830
399.23811	-1.99830
