3996.23848	0.37457
3994.30979	0.37725
3992.38110	0.37474
3990.45242	0.36995
3988.52373	0.37104
3986.59504	0.37463
3984.66636	0.37663
3982.73767	0.37952
3980.80898	0.38387
3978.88030	0.38703
3976.95161	0.38616
3975.02292	0.38049
3973.09424	0.37358
3971.16555	0.37123
3969.23687	0.37494
3967.30818	0.37992
3965.37949	0.38069
3963.45081	0.37799
3961.52212	0.37749
3959.59343	0.37931
3957.66475	0.37762
3955.73606	0.37323
3953.80737	0.37402
3951.87869	0.38074
3949.95000	0.38589
3948.02131	0.38571
3946.09263	0.38149
3944.16394	0.37751
3942.23525	0.37712
3940.30657	0.37698
3938.37788	0.37615
3936.44919	0.37678
3934.52051	0.37543
3932.59182	0.37163
3930.66313	0.37060
3928.73445	0.37270
3926.80576	0.37456
3924.87708	0.37560
3922.94839	0.37540
3921.01970	0.37306
3919.09102	0.36972
3917.16233	0.36743
3915.23364	0.36772
3913.30496	0.37006
3911.37627	0.37313
3909.44758	0.37529
3907.51890	0.37435
3905.59021	0.37144
3903.66152	0.37081
3901.73284	0.37261
3899.80415	0.37149
3897.87546	0.36711
3895.94678	0.36463
3894.01809	0.36503
3892.08940	0.36786
3890.16072	0.37318
3888.23203	0.37534
3886.30334	0.37038
3884.37466	0.36571
3882.44597	0.36704
3880.51729	0.36931
3878.58860	0.36878
3876.65991	0.36736
3874.73123	0.36662
3872.80254	0.36683
3870.87385	0.36786
3868.94517	0.36915
3867.01648	0.37022
3865.08779	0.37072
3863.15911	0.37059
3861.23042	0.37038
3859.30173	0.37070
3857.37305	0.37080
3855.44436	0.36788
3853.51567	0.36292
3851.58699	0.36300
3849.65830	0.36803
3847.72961	0.37129
3845.80093	0.37232
3843.87224	0.37446
3841.94355	0.37730
3840.01487	0.37711
3838.08618	0.37422
3836.15750	0.37376
3834.22881	0.37541
3832.30012	0.37677
3830.37144	0.37870
3828.44275	0.37853
3826.51406	0.37384
3824.58538	0.36870
3822.65669	0.36671
3820.72800	0.36668
3818.79932	0.36713
3816.87063	0.36763
3814.94194	0.36729
3813.01326	0.36595
3811.08457	0.36469
3809.15588	0.36519
3807.22720	0.36677
3805.29851	0.36683
3803.36982	0.36574
3801.44114	0.36499
3799.51245	0.36527
3797.58376	0.36644
3795.65508	0.36714
3793.72639	0.36693
3791.79771	0.36568
3789.86902	0.36415
3787.94033	0.36365
3786.01165	0.36343
3784.08296	0.36303
3782.15427	0.36254
3780.22559	0.36287
3778.29690	0.36541
3776.36821	0.36803
3774.43953	0.36768
3772.51084	0.36514
3770.58215	0.36527
3768.65347	0.36853
3766.72478	0.36857
3764.79609	0.36570
3762.86741	0.36584
3760.93872	0.36771
3759.01003	0.36747
3757.08135	0.36696
3755.15266	0.36641
3753.22397	0.36442
3751.29529	0.36413
3749.36660	0.36465
3747.43792	0.36203
3745.50923	0.35920
3743.58054	0.35993
3741.65186	0.36226
3739.72317	0.36311
3737.79448	0.36289
3735.86580	0.36203
3733.93711	0.36072
3732.00842	0.36057
3730.07974	0.36198
3728.15105	0.36413
3726.22236	0.36464
3724.29368	0.36194
3722.36499	0.35809
3720.43630	0.35489
3718.50762	0.35351
3716.57893	0.35555
3714.65024	0.35991
3712.72156	0.36114
3710.79287	0.35712
3708.86418	0.35325
3706.93550	0.35234
3705.00681	0.35248
3703.07812	0.35367
3701.14944	0.35567
3699.22075	0.35521
3697.29207	0.35220
3695.36338	0.34955
3693.43469	0.34678
3691.50601	0.34437
3689.57732	0.34515
3687.64863	0.34738
3685.71995	0.34794
3683.79126	0.34809
3681.86257	0.34813
3679.93389	0.34647
3678.00520	0.34552
3676.07651	0.34735
3674.14783	0.35006
3672.21914	0.35213
3670.29045	0.35260
3668.36177	0.35138
3666.43308	0.35001
3664.50439	0.34842
3662.57571	0.34539
3660.64702	0.34337
3658.71833	0.34429
3656.78965	0.34490
3654.86096	0.34440
3652.93228	0.34595
3651.00359	0.34822
3649.07490	0.34605
3647.14622	0.34169
3645.21753	0.34163
3643.28884	0.34310
3641.36016	0.34174
3639.43147	0.33976
3637.50278	0.33952
3635.57410	0.34064
3633.64541	0.34275
3631.71672	0.34508
3629.78804	0.34472
3627.85935	0.34099
3625.93066	0.33817
3624.00198	0.33893
3622.07329	0.34091
3620.14460	0.34108
3618.21592	0.33996
3616.28723	0.33939
3614.35854	0.33989
3612.42986	0.33959
3610.50117	0.33653
3608.57249	0.33436
3606.64380	0.33673
3604.71511	0.34068
3602.78643	0.34214
3600.85774	0.34205
3598.92905	0.34400
3597.00037	0.34669
3595.07168	0.34656
3593.14299	0.34516
3591.21431	0.34406
3589.28562	0.34190
3587.35693	0.33927
3585.42825	0.33875
3583.49956	0.34105
3581.57087	0.34270
3579.64219	0.34116
3577.71350	0.34009
3575.78481	0.34210
3573.85613	0.34442
3571.92744	0.34404
3569.99875	0.33951
3568.07007	0.33521
3566.14138	0.33789
3564.21270	0.34459
3562.28401	0.34922
3560.35532	0.34999
3558.42664	0.34678
3556.49795	0.34200
3554.56926	0.33913
3552.64058	0.33920
3550.71189	0.33968
3548.78320	0.33880
3546.85452	0.33905
3544.92583	0.34206
3542.99714	0.34475
3541.06846	0.34338
3539.13977	0.33972
3537.21108	0.33981
3535.28240	0.34457
3533.35371	0.34870
3531.42502	0.34922
3529.49634	0.34688
3527.56765	0.34367
3525.63896	0.34279
3523.71028	0.34336
3521.78159	0.34173
3519.85291	0.33980
3517.92422	0.34028
3515.99553	0.34034
3514.06685	0.33784
3512.13816	0.33657
3510.20947	0.33996
3508.28079	0.34463
3506.35210	0.34622
3504.42341	0.34382
3502.49473	0.33936
3500.56604	0.33885
3498.63735	0.34208
3496.70867	0.34326
3494.77998	0.34397
3492.85129	0.34427
3490.92261	0.34069
3488.99392	0.33757
3487.06523	0.33907
3485.13655	0.34335
3483.20786	0.34870
3481.27917	0.35383
3479.35049	0.35513
3477.42180	0.35079
3475.49312	0.34703
3473.56443	0.34970
3471.63574	0.35285
3469.70706	0.35070
3467.77837	0.34733
3465.84968	0.34464
3463.92100	0.34152
3461.99231	0.34086
3460.06362	0.34364
3458.13494	0.34678
3456.20625	0.34825
3454.27756	0.34879
3452.34888	0.34881
3450.42019	0.34913
3448.49150	0.35176
3446.56282	0.35411
3444.63413	0.35317
3442.70544	0.35050
3440.77676	0.34715
3438.84807	0.34459
3436.91938	0.34473
3434.99070	0.34699
3433.06201	0.34961
3431.13333	0.35157
3429.20464	0.35217
3427.27595	0.35063
3425.34727	0.34798
3423.41858	0.34663
3421.48989	0.34765
3419.56121	0.34947
3417.63252	0.34921
3415.70383	0.34742
3413.77515	0.34709
3411.84646	0.34786
3409.91777	0.34717
3407.98909	0.34567
3406.06040	0.34446
3404.13171	0.34246
3402.20303	0.34138
3400.27434	0.34229
3398.34565	0.34161
3396.41697	0.33977
3394.48828	0.34075
3392.55959	0.34315
3390.63091	0.34519
3388.70222	0.34915
3386.77354	0.35299
3384.84485	0.35162
3382.91616	0.34615
3380.98748	0.34228
3379.05879	0.34276
3377.13010	0.34372
3375.20142	0.34283
3373.27273	0.34509
3371.34404	0.35127
3369.41536	0.35415
3367.48667	0.35085
3365.55798	0.34663
3363.62930	0.34575
3361.70061	0.34658
3359.77192	0.34785
3357.84324	0.35195
3355.91455	0.35810
3353.98586	0.35995
3352.05718	0.35460
3350.12849	0.34818
3348.19980	0.34672
3346.27112	0.34764
3344.34243	0.34629
3342.41375	0.34410
3340.48506	0.34386
3338.55637	0.34534
3336.62769	0.34794
3334.69900	0.34831
3332.77031	0.34521
3330.84163	0.34468
3328.91294	0.34845
3326.98425	0.35127
3325.05557	0.34955
3323.12688	0.34502
3321.19819	0.34224
3319.26951	0.34249
3317.34082	0.34512
3315.41213	0.34879
3313.48345	0.35166
3311.55476	0.35529
3309.62607	0.35913
3307.69739	0.35809
3305.76870	0.35209
3303.84001	0.34713
3301.91133	0.34687
3299.98264	0.34953
3298.05396	0.35064
3296.12527	0.34694
3294.19658	0.34142
3292.26790	0.34009
3290.33921	0.34392
3288.41052	0.34853
3286.48184	0.34919
3284.55315	0.34635
3282.62446	0.34420
3280.69578	0.34452
3278.76709	0.34706
3276.83840	0.34970
3274.90972	0.35042
3272.98103	0.35022
3271.05234	0.34920
3269.12366	0.34780
3267.19497	0.34732
3265.26628	0.34719
3263.33760	0.34816
3261.40891	0.34963
3259.48022	0.34969
3257.55154	0.34943
3255.62285	0.34853
3253.69417	0.34607
3251.76548	0.34510
3249.83679	0.34768
3247.90811	0.35149
3245.97942	0.35313
3244.05073	0.35220
3242.12205	0.35225
3240.19336	0.35381
3238.26467	0.35275
3236.33599	0.34889
3234.40730	0.34533
3232.47861	0.34345
3230.54993	0.34264
3228.62124	0.34152
3226.69255	0.34148
3224.76387	0.34556
3222.83518	0.35088
3220.90649	0.35003
3218.97781	0.34423
3217.04912	0.34189
3215.12043	0.34571
3213.19175	0.35162
3211.26306	0.35397
3209.33437	0.35174
3207.40569	0.34777
3205.47700	0.34432
3203.54832	0.34341
3201.61963	0.34534
3199.69094	0.34707
3197.76226	0.34678
3195.83357	0.34694
3193.90488	0.34751
3191.97620	0.34726
3190.04751	0.34911
3188.11882	0.35240
3186.19014	0.35255
3184.26145	0.34873
3182.33276	0.34516
3180.40408	0.34664
3178.47539	0.35092
3176.54670	0.35110
3174.61802	0.34743
3172.68933	0.34562
3170.76064	0.34696
3168.83196	0.34876
3166.90327	0.34946
3164.97458	0.34938
3163.04590	0.34778
3161.11721	0.34605
3159.18853	0.34819
3157.25984	0.35106
3155.33115	0.35043
3153.40247	0.34933
3151.47378	0.34869
3149.54509	0.34711
3147.61641	0.34667
3145.68772	0.34708
3143.75903	0.34679
3141.83035	0.34841
3139.90166	0.35112
3137.97297	0.35121
3136.04429	0.34992
3134.11560	0.34806
3132.18691	0.34375
3130.25823	0.33912
3128.32954	0.34014
3126.40085	0.34586
3124.47217	0.34802
3122.54348	0.34663
3120.61479	0.34760
3118.68611	0.35003
3116.75742	0.35132
3114.82874	0.35095
3112.90005	0.34944
3110.97136	0.34997
3109.04268	0.35110
3107.11399	0.34840
3105.18530	0.34508
3103.25662	0.34578
3101.32793	0.34815
3099.39924	0.34817
3097.47056	0.34708
3095.54187	0.34819
3093.61318	0.35018
3091.68450	0.34876
3089.75581	0.34505
3087.82712	0.34493
3085.89844	0.34760
3083.96975	0.34819
3082.04106	0.34717
3080.11238	0.34600
3078.18369	0.34464
3076.25500	0.34424
3074.32632	0.34534
3072.39763	0.34690
3070.46895	0.34777
3068.54026	0.34752
3066.61157	0.34673
3064.68289	0.34633
3062.75420	0.34600
3060.82551	0.34584
3058.89683	0.34845
3056.96814	0.35241
3055.03945	0.35093
3053.11077	0.34409
3051.18208	0.33962
3049.25339	0.34016
3047.32471	0.34253
3045.39602	0.34473
3043.46733	0.34602
3041.53865	0.34680
3039.60996	0.34852
3037.68127	0.35030
3035.75259	0.35081
3033.82390	0.35084
3031.89521	0.35062
3029.96653	0.34929
3028.03784	0.34694
3026.10916	0.34451
3024.18047	0.34359
3022.25178	0.34567
3020.32310	0.34878
3018.39441	0.34945
3016.46572	0.34856
3014.53704	0.34838
3012.60835	0.34764
3010.67966	0.34620
3008.75098	0.34604
3006.82229	0.34585
3004.89360	0.34468
3002.96492	0.34468
3001.03623	0.34636
2999.10754	0.34752
2997.17886	0.34694
2995.25017	0.34611
2993.32148	0.34629
2991.39280	0.34714
2989.46411	0.34842
2987.53542	0.35005
2985.60674	0.35060
2983.67805	0.34913
2981.74937	0.34787
2979.82068	0.34829
2977.89199	0.34948
2975.96331	0.35015
2974.03462	0.34939
2972.10593	0.34926
2970.17725	0.35182
2968.24856	0.35508
2966.31987	0.35597
2964.39119	0.35335
2962.46250	0.34909
2960.53381	0.34747
2958.60513	0.35092
2956.67644	0.35493
2954.74775	0.35386
2952.81907	0.35020
2950.89038	0.34776
2948.96169	0.34699
2947.03301	0.34773
2945.10432	0.34733
2943.17563	0.34588
2941.24695	0.34644
2939.31826	0.34739
2937.38958	0.34784
2935.46089	0.34927
2933.53220	0.34937
2931.60352	0.34765
2929.67483	0.34737
2927.74614	0.34734
2925.81746	0.34575
2923.88877	0.34521
2921.96008	0.34661
2920.03140	0.34917
2918.10271	0.35236
2916.17402	0.35436
2914.24534	0.35390
2912.31665	0.35210
2910.38796	0.35130
2908.45928	0.35133
2906.53059	0.34989
2904.60190	0.34790
2902.67322	0.34843
2900.74453	0.35007
2898.81584	0.34916
2896.88716	0.34739
2894.95847	0.34816
2893.02979	0.34968
2891.10110	0.34918
2889.17241	0.34773
2887.24373	0.34688
2885.31504	0.34610
2883.38635	0.34525
2881.45767	0.34529
2879.52898	0.34559
2877.60029	0.34519
2875.67161	0.34546
2873.74292	0.34659
2871.81423	0.34630
2869.88555	0.34472
2867.95686	0.34482
2866.02817	0.34618
2864.09949	0.34584
2862.17080	0.34502
2860.24211	0.34582
2858.31343	0.34702
2856.38474	0.34725
2854.45605	0.34647
2852.52737	0.34579
2850.59868	0.34712
2848.67000	0.35016
2846.74131	0.35124
2844.81262	0.34854
2842.88394	0.34464
2840.95525	0.34350
2839.02656	0.34623
2837.09788	0.34963
2835.16919	0.35035
2833.24050	0.34774
2831.31182	0.34430
2829.38313	0.34371
2827.45444	0.34575
2825.52576	0.34844
2823.59707	0.35107
2821.66838	0.35160
2819.73970	0.35043
2817.81101	0.35004
2815.88232	0.34803
2813.95364	0.34442
2812.02495	0.34478
2810.09626	0.34843
2808.16758	0.35062
2806.23889	0.35150
2804.31021	0.35039
2802.38152	0.34632
2800.45283	0.34369
2798.52415	0.34392
2796.59546	0.34434
2794.66677	0.34436
2792.73809	0.34419
2790.80940	0.34467
2788.88071	0.34643
2786.95203	0.34842
2785.02334	0.34867
2783.09465	0.34723
2781.16597	0.34639
2779.23728	0.34618
2777.30859	0.34629
2775.37991	0.34719
2773.45122	0.34688
2771.52253	0.34437
2769.59385	0.34228
2767.66516	0.34213
2765.73647	0.34330
2763.80779	0.34625
2761.87910	0.34975
2759.95042	0.35055
2758.02173	0.34854
2756.09304	0.34686
2754.16436	0.34774
2752.23567	0.35016
2750.30698	0.35048
2748.37830	0.34679
2746.44961	0.34277
2744.52092	0.34268
2742.59224	0.34491
2740.66355	0.34560
2738.73486	0.34490
2736.80618	0.34504
2734.87749	0.34612
2732.94880	0.34695
2731.02012	0.34642
2729.09143	0.34518
2727.16274	0.34581
2725.23406	0.34857
2723.30537	0.35007
2721.37668	0.34787
2719.44800	0.34501
2717.51931	0.34554
2715.59062	0.34751
2713.66194	0.34749
2711.73325	0.34757
2709.80457	0.35020
2707.87588	0.35256
2705.94719	0.35187
2704.01851	0.34904
2702.08982	0.34722
2700.16113	0.34839
2698.23245	0.34964
2696.30376	0.34856
2694.37507	0.34726
2692.44639	0.34696
2690.51770	0.34685
2688.58901	0.34789
2686.66033	0.35082
2684.73164	0.35228
2682.80295	0.35041
2680.87427	0.34853
2678.94558	0.34842
2677.01689	0.34990
2675.08821	0.35242
2673.15952	0.35265
2671.23083	0.34855
2669.30215	0.34354
2667.37346	0.34192
2665.44478	0.34320
2663.51609	0.34391
2661.58740	0.34356
2659.65872	0.34467
2657.73003	0.34664
2655.80134	0.34642
2653.87266	0.34436
2651.94397	0.34386
2650.01528	0.34603
2648.08660	0.34788
2646.15791	0.34793
2644.22922	0.34878
2642.30054	0.35115
2640.37185	0.35229
2638.44316	0.35132
2636.51448	0.35006
2634.58579	0.34930
2632.65710	0.34885
2630.72842	0.34838
2628.79973	0.34806
2626.87104	0.34938
2624.94236	0.35123
2623.01367	0.35069
2621.08499	0.34906
2619.15630	0.34879
2617.22761	0.34863
2615.29893	0.34892
2613.37024	0.35098
2611.44155	0.35196
2609.51287	0.35040
2607.58418	0.34886
2605.65549	0.34972
2603.72681	0.35233
2601.79812	0.35308
2599.86943	0.35073
2597.94075	0.34760
2596.01206	0.34616
2594.08337	0.34724
2592.15469	0.34853
2590.22600	0.34811
2588.29731	0.34876
2586.36863	0.35170
2584.43994	0.35332
2582.51125	0.35297
2580.58257	0.35271
2578.65388	0.35177
2576.72520	0.34951
2574.79651	0.34737
2572.86782	0.34709
2570.93914	0.34904
2569.01045	0.35112
2567.08176	0.35124
2565.15308	0.35034
2563.22439	0.35031
2561.29570	0.35044
2559.36702	0.34936
2557.43833	0.34798
2555.50964	0.34759
2553.58096	0.34862
2551.65227	0.35046
2549.72358	0.35028
2547.79490	0.34818
2545.86621	0.34832
2543.93752	0.35000
2542.00884	0.35013
2540.08015	0.34945
2538.15146	0.34883
2536.22278	0.34803
2534.29409	0.34781
2532.36541	0.34843
2530.43672	0.34825
2528.50803	0.34710
2526.57935	0.34623
2524.65066	0.34561
2522.72197	0.34577
2520.79329	0.34727
2518.86460	0.34906
2516.93591	0.34992
2515.00723	0.34957
2513.07854	0.34896
2511.14985	0.34846
2509.22117	0.34849
2507.29248	0.35062
2505.36379	0.35283
2503.43511	0.35184
2501.50642	0.34946
2499.57773	0.34815
2497.64905	0.34786
2495.72036	0.34844
2493.79167	0.34953
2491.86299	0.35079
2489.93430	0.35150
2488.00562	0.35080
2486.07693	0.34924
2484.14824	0.34897
2482.21956	0.35036
2480.29087	0.35064
2478.36218	0.34948
2476.43350	0.34879
2474.50481	0.34721
2472.57612	0.34482
2470.64744	0.34544
2468.71875	0.34800
2466.79006	0.34794
2464.86138	0.34592
2462.93269	0.34490
2461.00400	0.34549
2459.07532	0.34638
2457.14663	0.34629
2455.21794	0.34709
2453.28926	0.35035
2451.36057	0.35282
2449.43188	0.35202
2447.50320	0.35066
2445.57451	0.35058
2443.64583	0.35082
2441.71714	0.35132
2439.78845	0.35166
2437.85977	0.35150
2435.93108	0.35159
2434.00239	0.35178
2432.07371	0.35181
2430.14502	0.35093
2428.21633	0.34851
2426.28765	0.34720
2424.35896	0.34874
2422.43027	0.35088
2420.50159	0.35262
2418.57290	0.35402
2416.64421	0.35309
2414.71553	0.34945
2412.78684	0.34620
2410.85815	0.34503
2408.92947	0.34432
2407.00078	0.34397
2405.07209	0.34526
2403.14341	0.34786
2401.21472	0.35080
2399.28604	0.35249
2397.35735	0.35239
2395.42866	0.35162
2393.49998	0.35059
2391.57129	0.34978
2389.64260	0.35066
2387.71392	0.35163
2385.78523	0.34952
2383.85654	0.34685
2381.92786	0.34694
2379.99917	0.34787
2378.07048	0.34754
2376.14180	0.34704
2374.21311	0.34837
2372.28442	0.35017
2370.35574	0.35026
2368.42705	0.35008
2366.49836	0.35029
2364.56968	0.34896
2362.64099	0.34669
2360.71230	0.34613
2358.78362	0.34757
2356.85493	0.34954
2354.92625	0.35025
2352.99756	0.34826
2351.06887	0.34513
2349.14019	0.34448
2347.21150	0.34656
2345.28281	0.34856
2343.35413	0.34928
2341.42544	0.34946
2339.49675	0.35038
2337.56807	0.35224
2335.63938	0.35313
2333.71069	0.35232
2331.78201	0.35059
2329.85332	0.34863
2327.92463	0.34742
2325.99595	0.34727
2324.06726	0.34743
2322.13857	0.34738
2320.20989	0.34759
2318.28120	0.34856
2316.35251	0.34957
2314.42383	0.34967
2312.49514	0.34857
2310.56646	0.34733
2308.63777	0.34729
2306.70908	0.34707
2304.78040	0.34549
2302.85171	0.34462
2300.92302	0.34560
2298.99434	0.34711
2297.06565	0.34723
2295.13696	0.34544
2293.20828	0.34403
2291.27959	0.34463
2289.35090	0.34613
2287.42222	0.34688
2285.49353	0.34730
2283.56484	0.34873
2281.63616	0.34966
2279.70747	0.34917
2277.77878	0.34909
2275.85010	0.34972
2273.92141	0.35013
2271.99272	0.35063
2270.06404	0.35141
2268.13535	0.35147
2266.20667	0.34967
2264.27798	0.34701
2262.34929	0.34626
2260.42061	0.34759
2258.49192	0.34878
2256.56323	0.34927
2254.63455	0.34923
2252.70586	0.34842
2250.77717	0.34733
2248.84849	0.34707
2246.91980	0.34787
2244.99111	0.34851
2243.06243	0.34913
2241.13374	0.35020
2239.20505	0.34989
2237.27637	0.34732
2235.34768	0.34533
2233.41899	0.34586
2231.49031	0.34670
2229.56162	0.34650
2227.63293	0.34591
2225.70425	0.34527
2223.77556	0.34590
2221.84687	0.34778
2219.91819	0.34883
2217.98950	0.34956
2216.06082	0.35162
2214.13213	0.35258
2212.20344	0.34990
2210.27476	0.34572
2208.34607	0.34356
2206.41738	0.34517
2204.48870	0.34799
2202.56001	0.34771
2200.63132	0.34548
2198.70264	0.34433
2196.77395	0.34423
2194.84526	0.34525
2192.91658	0.34729
2190.98789	0.34870
2189.05920	0.34875
2187.13052	0.34829
2185.20183	0.34797
2183.27314	0.34769
2181.34446	0.34803
2179.41577	0.34902
2177.48708	0.34896
2175.55840	0.34763
2173.62971	0.34687
2171.70103	0.34728
2169.77234	0.34870
2167.84365	0.35058
2165.91497	0.35114
2163.98628	0.35015
2162.05759	0.34920
2160.12891	0.34886
2158.20022	0.34903
2156.27153	0.34854
2154.34285	0.34566
2152.41416	0.34337
2150.48547	0.34479
2148.55679	0.34580
2146.62810	0.34481
2144.69941	0.34623
2142.77073	0.34956
2140.84204	0.35130
2138.91335	0.35070
2136.98467	0.34911
2135.05598	0.34804
2133.12729	0.34663
2131.19861	0.34438
2129.26992	0.34368
2127.34124	0.34590
2125.41255	0.34908
2123.48386	0.35074
2121.55518	0.35097
2119.62649	0.35081
2117.69780	0.35044
2115.76912	0.35034
2113.84043	0.34935
2111.91174	0.34608
2109.98306	0.34339
2108.05437	0.34370
2106.12568	0.34504
2104.19700	0.34603
2102.26831	0.34706
2100.33962	0.34741
2098.41094	0.34737
2096.48225	0.34787
2094.55356	0.34763
2092.62488	0.34647
2090.69619	0.34610
2088.76750	0.34652
2086.83882	0.34714
2084.91013	0.34801
2082.98145	0.34785
2081.05276	0.34613
2079.12407	0.34558
2077.19539	0.34664
2075.26670	0.34634
2073.33801	0.34464
2071.40933	0.34384
2069.48064	0.34524
2067.55195	0.34817
2065.62327	0.34980
2063.69458	0.34851
2061.76589	0.34641
2059.83721	0.34597
2057.90852	0.34654
2055.97983	0.34633
2054.05115	0.34564
2052.12246	0.34666
2050.19377	0.34864
2048.26509	0.34839
2046.33640	0.34661
2044.40771	0.34573
2042.47903	0.34560
2040.55034	0.34594
2038.62166	0.34711
2036.69297	0.34859
2034.76428	0.34928
2032.83560	0.34845
2030.90691	0.34615
2028.97822	0.34373
2027.04954	0.34280
2025.12085	0.34336
2023.19216	0.34440
2021.26348	0.34507
2019.33479	0.34577
2017.40610	0.34693
2015.47742	0.34736
2013.54873	0.34677
2011.62004	0.34639
2009.69136	0.34639
2007.76267	0.34583
2005.83398	0.34418
2003.90530	0.34276
2001.97661	0.34329
2000.04792	0.34500
1998.11924	0.34654
1996.19055	0.34754
1994.26187	0.34687
1992.33318	0.34488
1990.40449	0.34373
1988.47581	0.34398
1986.54712	0.34505
1984.61843	0.34650
1982.68975	0.34773
1980.76106	0.34828
1978.83237	0.34793
1976.90369	0.34750
1974.97500	0.34827
1973.04631	0.34946
1971.11763	0.34935
1969.18894	0.34864
1967.26025	0.34919
1965.33157	0.34996
1963.40288	0.34906
1961.47419	0.34755
1959.54551	0.34702
1957.61682	0.34739
1955.68813	0.34827
1953.75945	0.34886
1951.83076	0.34869
1949.90208	0.34815
1947.97339	0.34708
1946.04470	0.34677
1944.11602	0.34846
1942.18733	0.34992
1940.25864	0.34966
1938.32996	0.34775
1936.40127	0.34477
1934.47258	0.34366
1932.54390	0.34511
1930.61521	0.34648
1928.68652	0.34671
1926.75784	0.34688
1924.82915	0.34806
1922.90046	0.34964
1920.97178	0.35068
1919.04309	0.35088
1917.11440	0.34973
1915.18572	0.34833
1913.25703	0.34838
1911.32834	0.34903
1909.39966	0.34887
1907.47097	0.34809
1905.54229	0.34691
1903.61360	0.34570
1901.68491	0.34639
1899.75623	0.34929
1897.82754	0.35130
1895.89885	0.35066
1893.97017	0.34862
1892.04148	0.34615
1890.11279	0.34490
1888.18411	0.34592
1886.25542	0.34685
1884.32673	0.34627
1882.39805	0.34542
1880.46936	0.34498
1878.54067	0.34565
1876.61199	0.34755
1874.68330	0.34871
1872.75461	0.34869
1870.82593	0.34931
1868.89724	0.34992
1866.96855	0.34945
1865.03987	0.35006
1863.11118	0.35184
1861.18250	0.35197
1859.25381	0.35046
1857.32512	0.34908
1855.39644	0.34881
1853.46775	0.34982
1851.53906	0.35024
1849.61038	0.34864
1847.68169	0.34690
1845.75300	0.34637
1843.82432	0.34626
1841.89563	0.34675
1839.96694	0.34825
1838.03826	0.34976
1836.10957	0.35045
1834.18088	0.35001
1832.25220	0.34930
1830.32351	0.34949
1828.39482	0.34947
1826.46614	0.34855
1824.53745	0.34760
1822.60876	0.34717
1820.68008	0.34806
1818.75139	0.34958
1816.82271	0.35002
1814.89402	0.34935
1812.96533	0.34827
1811.03665	0.34776
1809.10796	0.34815
1807.17927	0.34858
1805.25059	0.34866
1803.32190	0.34853
1801.39321	0.34886
1799.46453	0.35067
1797.53584	0.35183
1795.60715	0.34986
1793.67847	0.34724
1791.74978	0.34631
1789.82109	0.34590
1787.89241	0.34589
1785.96372	0.34671
1784.03503	0.34775
1782.10635	0.34886
1780.17766	0.34961
1778.24897	0.34852
1776.32029	0.34614
1774.39160	0.34498
1772.46292	0.34522
1770.53423	0.34525
1768.60554	0.34583
1766.67686	0.34817
1764.74817	0.34974
1762.81948	0.34858
1760.89080	0.34719
1758.96211	0.34669
1757.03342	0.34670
1755.10474	0.34807
1753.17605	0.34878
1751.24736	0.34747
1749.31868	0.34688
1747.38999	0.34753
1745.46130	0.34850
1743.53262	0.35003
1741.60393	0.35024
1739.67524	0.34819
1737.74656	0.34729
1735.81787	0.34857
1733.88918	0.34862
1731.96050	0.34730
1730.03181	0.34686
1728.10312	0.34679
1726.17444	0.34706
1724.24575	0.34714
1722.31707	0.34541
1720.38838	0.34418
1718.45969	0.34580
1716.53101	0.34738
1714.60232	0.34631
1712.67363	0.34455
1710.74495	0.34453
1708.81626	0.34548
1706.88757	0.34543
1704.95889	0.34525
1703.03020	0.34770
1701.10151	0.35218
1699.17283	0.35401
1697.24414	0.35099
1695.31545	0.34699
1693.38677	0.34610
1691.45808	0.34707
1689.52939	0.34772
1687.60071	0.34865
1685.67202	0.34878
1683.74333	0.34667
1681.81465	0.34506
1679.88596	0.34535
1677.95728	0.34571
1676.02859	0.34490
1674.09990	0.34386
1672.17122	0.34408
1670.24253	0.34471
1668.31384	0.34603
1666.38516	0.34791
1664.45647	0.34718
1662.52778	0.34543
1660.59910	0.34660
1658.67041	0.34914
1656.74172	0.35033
1654.81304	0.34970
1652.88435	0.34817
1650.95566	0.34819
1649.02698	0.35023
1647.09829	0.35111
1645.16960	0.34910
1643.24092	0.34657
1641.31223	0.34509
1639.38354	0.34404
1637.45486	0.34444
1635.52617	0.34654
1633.59749	0.34760
1631.66880	0.34777
1629.74011	0.34843
1627.81143	0.34815
1625.88274	0.34716
1623.95405	0.34637
1622.02537	0.34449
1620.09668	0.34209
1618.16799	0.34216
1616.23931	0.34541
1614.31062	0.34849
1612.38193	0.34940
1610.45325	0.34915
1608.52456	0.34721
1606.59587	0.34347
1604.66719	0.34160
1602.73850	0.34303
1600.80981	0.34469
1598.88113	0.34508
1596.95244	0.34477
1595.02375	0.34330
1593.09507	0.34107
1591.16638	0.34038
1589.23770	0.34111
1587.30901	0.34085
1585.38032	0.34124
1583.45164	0.34350
1581.52295	0.34378
1579.59426	0.34138
1577.66558	0.33961
1575.73689	0.33978
1573.80820	0.34140
1571.87952	0.34351
1569.95083	0.34532
1568.02214	0.34651
1566.09346	0.34602
1564.16477	0.34318
1562.23608	0.34086
1560.30740	0.34226
1558.37871	0.34554
1556.45002	0.34657
1554.52134	0.34538
1552.59265	0.34477
1550.66396	0.34543
1548.73528	0.34579
1546.80659	0.34512
1544.87791	0.34458
1542.94922	0.34507
1541.02053	0.34548
1539.09185	0.34427
1537.16316	0.34227
1535.23447	0.34197
1533.30579	0.34332
1531.37710	0.34399
1529.44841	0.34384
1527.51973	0.34357
1525.59104	0.34341
1523.66235	0.34426
1521.73367	0.34541
1519.80498	0.34528
1517.87629	0.34511
1515.94761	0.34619
1514.01892	0.34723
1512.09023	0.34819
1510.16155	0.34991
1508.23286	0.35067
1506.30417	0.34896
1504.37549	0.34676
1502.44680	0.34626
1500.51812	0.34657
1498.58943	0.34561
1496.66074	0.34360
1494.73206	0.34339
1492.80337	0.34458
1490.87468	0.34334
1488.94600	0.33987
1487.01731	0.33813
1485.08862	0.33997
1483.15994	0.34311
1481.23125	0.34462
1479.30256	0.34495
1477.37388	0.34608
1475.44519	0.34868
1473.51650	0.35083
1471.58782	0.35015
1469.65913	0.34708
1467.73044	0.34380
1465.80176	0.34322
1463.87307	0.34546
1461.94438	0.34724
1460.01570	0.34827
1458.08701	0.34878
1456.15833	0.34665
1454.22964	0.34365
1452.30095	0.34337
1450.37227	0.34503
1448.44358	0.34681
1446.51489	0.34787
1444.58621	0.34678
1442.65752	0.34423
1440.72883	0.34246
1438.80015	0.34199
1436.87146	0.34256
1434.94277	0.34398
1433.01409	0.34563
1431.08540	0.34676
1429.15671	0.34727
1427.22803	0.34700
1425.29934	0.34489
1423.37065	0.34160
1421.44197	0.34006
1419.51328	0.34062
1417.58459	0.34098
1415.65591	0.34067
1413.72722	0.34034
1411.79854	0.34079
1409.86985	0.34280
1407.94116	0.34476
1406.01248	0.34509
1404.08379	0.34491
1402.15510	0.34444
1400.22642	0.34298
1398.29773	0.34206
1396.36904	0.34285
1394.44036	0.34390
1392.51167	0.34424
1390.58298	0.34425
1388.65430	0.34411
1386.72561	0.34449
1384.79692	0.34497
1382.86824	0.34348
1380.93955	0.34129
1379.01086	0.34093
1377.08218	0.34106
1375.15349	0.34141
1373.22480	0.34350
1371.29612	0.34582
1369.36743	0.34649
1367.43875	0.34593
1365.51006	0.34535
1363.58137	0.34445
1361.65269	0.34217
1359.72400	0.33991
1357.79531	0.33992
1355.86663	0.34184
1353.93794	0.34361
1352.00925	0.34285
1350.08057	0.33942
1348.15188	0.33784
1346.22319	0.33978
1344.29451	0.34125
1342.36582	0.34115
1340.43713	0.34094
1338.50845	0.34034
1336.57976	0.33974
1334.65107	0.34035
1332.72239	0.34184
1330.79370	0.34268
1328.86501	0.34216
1326.93633	0.34130
1325.00764	0.34139
1323.07896	0.34145
1321.15027	0.34042
1319.22158	0.33930
1317.29290	0.33849
1315.36421	0.33879
1313.43552	0.34091
1311.50684	0.34274
1309.57815	0.34300
1307.64946	0.34252
1305.72078	0.34213
1303.79209	0.34289
1301.86340	0.34375
1299.93472	0.34250
1298.00603	0.34068
1296.07734	0.34047
1294.14866	0.34065
1292.21997	0.34092
1290.29128	0.34262
1288.36260	0.34381
1286.43391	0.34268
1284.50522	0.34205
1282.57654	0.34289
1280.64785	0.34337
1278.71917	0.34345
1276.79048	0.34327
1274.86179	0.34354
1272.93311	0.34333
1271.00442	0.34059
1269.07573	0.33884
1267.14705	0.34078
1265.21836	0.34349
1263.28967	0.34411
1261.36099	0.34150
1259.43230	0.33781
1257.50361	0.33641
1255.57493	0.33713
1253.64624	0.33861
1251.71755	0.34033
1249.78887	0.34152
1247.86018	0.34155
1245.93149	0.34060
1244.00281	0.33989
1242.07412	0.33984
1240.14543	0.34060
1238.21675	0.34370
1236.28806	0.34676
1234.35937	0.34526
1232.43069	0.34199
1230.50200	0.34197
1228.57332	0.34381
1226.64463	0.34356
1224.71594	0.34110
1222.78726	0.33992
1220.85857	0.34229
1218.92988	0.34627
1217.00120	0.34621
1215.07251	0.34098
1213.14382	0.33784
1211.21514	0.33968
1209.28645	0.34127
1207.35776	0.34093
1205.42908	0.34106
1203.50039	0.34207
1201.57170	0.34330
1199.64302	0.34242
1197.71433	0.33833
1195.78564	0.33604
1193.85696	0.33900
1191.92827	0.34230
1189.99958	0.34110
1188.07090	0.33834
1186.14221	0.33872
1184.21353	0.34129
1182.28484	0.34297
1180.35615	0.34351
1178.42747	0.34346
1176.49878	0.34244
1174.57009	0.34019
1172.64141	0.33730
1170.71272	0.33619
1168.78403	0.33871
1166.85535	0.34288
1164.92666	0.34557
1162.99797	0.34644
1161.06929	0.34728
1159.14060	0.34769
1157.21191	0.34610
1155.28323	0.34460
1153.35454	0.34390
1151.42585	0.34218
1149.49717	0.34100
1147.56848	0.34102
1145.63979	0.33995
1143.71111	0.33862
1141.78242	0.33846
1139.85374	0.33844
1137.92505	0.33884
1135.99636	0.33834
1134.06768	0.33527
1132.13899	0.33310
1130.21030	0.33454
1128.28162	0.33911
1126.35293	0.34489
1124.42424	0.34808
1122.49556	0.34737
1120.56687	0.34493
1118.63818	0.34319
1116.70950	0.34328
1114.78081	0.34418
1112.85212	0.34369
1110.92344	0.34212
1108.99475	0.34152
1107.06606	0.34142
1105.13738	0.34036
1103.20869	0.33859
1101.28000	0.33750
1099.35132	0.33821
1097.42263	0.34119
1095.49395	0.34557
1093.56526	0.34771
1091.63657	0.34622
1089.70789	0.34541
1087.77920	0.34695
1085.85051	0.34595
1083.92183	0.34036
1081.99314	0.33510
1080.06445	0.33432
1078.13577	0.33596
1076.20708	0.33631
1074.27839	0.33707
1072.34971	0.34052
1070.42102	0.34399
1068.49233	0.34589
1066.56365	0.34752
1064.63496	0.34692
1062.70627	0.34206
1060.77759	0.33821
1058.84890	0.33852
1056.92021	0.33896
1054.99153	0.33948
1053.06284	0.34292
1051.13416	0.34635
1049.20547	0.34488
1047.27678	0.34009
1045.34810	0.33766
1043.41941	0.33819
1041.49072	0.33879
1039.56204	0.33849
1037.63335	0.33766
1035.70466	0.33800
1033.77598	0.33976
1031.84729	0.34056
1029.91860	0.33936
1027.98992	0.33729
1026.06123	0.33719
1024.13254	0.33950
1022.20386	0.34041
1020.27517	0.33983
1018.34648	0.34117
1016.41780	0.34388
1014.48911	0.34444
1012.56042	0.34343
1010.63174	0.34408
1008.70305	0.34421
1006.77437	0.34117
1004.84568	0.33835
1002.91699	0.33789
1000.98831	0.33765
999.05962	0.33785
997.13093	0.33972
995.20225	0.34031
993.27356	0.33824
991.34487	0.33694
989.41619	0.33897
987.48750	0.34191
985.55881	0.34054
983.63013	0.33526
981.70144	0.33100
979.77275	0.33006
977.84407	0.33193
975.91538	0.33351
973.98669	0.33353
972.05801	0.33411
970.12932	0.33498
968.20063	0.33582
966.27195	0.33713
964.34326	0.33715
962.41458	0.33586
960.48589	0.33578
958.55720	0.33653
956.62852	0.33505
954.69983	0.33231
952.77114	0.33119
950.84246	0.33163
948.91377	0.33429
946.98508	0.33796
945.05640	0.33884
943.12771	0.33739
941.19902	0.33536
939.27034	0.33338
937.34165	0.33336
935.41296	0.33512
933.48428	0.33684
931.55559	0.33881
929.62690	0.34085
927.69822	0.34129
925.76953	0.33977
923.84084	0.33810
921.91216	0.33838
919.98347	0.33878
918.05479	0.33582
916.12610	0.33129
914.19741	0.32927
912.26873	0.33107
910.34004	0.33363
908.41135	0.33274
906.48267	0.33112
904.55398	0.33392
902.62529	0.33859
900.69661	0.33915
898.76792	0.33548
896.83923	0.33132
894.91055	0.32933
892.98186	0.33160
891.05317	0.33726
889.12449	0.34136
887.19580	0.34133
885.26711	0.33972
883.33843	0.33948
881.40974	0.33984
879.48105	0.33839
877.55237	0.33506
875.62368	0.33225
873.69500	0.33186
871.76631	0.33319
869.83762	0.33532
867.90894	0.33690
865.98025	0.33547
864.05156	0.33325
862.12288	0.33484
860.19419	0.33757
858.26550	0.33572
856.33682	0.33225
854.40813	0.33280
852.47944	0.33514
850.55076	0.33609
848.62207	0.33694
846.69338	0.33810
844.76470	0.33889
842.83601	0.33853
840.90732	0.33612
838.97864	0.33182
837.04995	0.32686
835.12126	0.32428
833.19258	0.32653
831.26389	0.33112
829.33521	0.33369
827.40652	0.33339
825.47783	0.33265
823.54915	0.33446
821.62046	0.33718
819.69177	0.33535
817.76309	0.32970
815.83440	0.32667
813.90571	0.32814
811.97703	0.32971
810.04834	0.32990
808.11965	0.33165
806.19097	0.33427
804.26228	0.33565
802.33359	0.33629
800.40491	0.33637
798.47622	0.33496
796.54753	0.33193
794.61885	0.32912
792.69016	0.32862
790.76147	0.32988
788.83279	0.32832
786.90410	0.32140
784.97542	0.31398
783.04673	0.31275
781.11804	0.31686
779.18936	0.31813
777.26067	0.31511
775.33198	0.31487
773.40330	0.31875
771.47461	0.32204
769.54592	0.32329
767.61724	0.32462
765.68855	0.32539
763.75986	0.32201
761.83118	0.31609
759.90249	0.31481
757.97380	0.31762
756.04512	0.31624
754.11643	0.31029
752.18774	0.30673
750.25906	0.30768
748.33037	0.30894
746.40168	0.30713
744.47300	0.30205
742.54431	0.29612
740.61562	0.29410
738.68694	0.29565
736.75825	0.29618
734.82957	0.29476
732.90088	0.29257
730.97219	0.29302
729.04351	0.29967
727.11482	0.30546
725.18613	0.30183
723.25745	0.29682
721.32876	0.29991
719.40007	0.30580
717.47139	0.30686
715.54270	0.30279
713.61401	0.29696
711.68533	0.29132
709.75664	0.28974
707.82795	0.29718
705.89927	0.30756
703.97058	0.30824
702.04189	0.29846
700.11321	0.28983
698.18452	0.29014
696.25583	0.29288
694.32715	0.29086
692.39846	0.28906
690.46978	0.29147
688.54109	0.29582
686.61240	0.30150
684.68372	0.30613
682.75503	0.30396
680.82634	0.29666
678.89766	0.29198
676.96897	0.28770
675.04028	0.28147
673.11160	0.28418
671.18291	0.29388
669.25422	0.29459
667.32554	0.29022
665.39685	0.29327
663.46816	0.30041
661.53948	0.30326
659.61079	0.30037
657.68210	0.29663
655.75342	0.29529
653.82473	0.29642
651.89604	0.30074
649.96736	0.30301
648.03867	0.30182
646.10999	0.30112
644.18130	0.29628
642.25261	0.29293
640.32393	0.30016
638.39524	0.30519
636.46655	0.29881
634.53787	0.28752
632.60918	0.27641
630.68049	0.27543
628.75181	0.29023
626.82312	0.30352
624.89443	0.30201
622.96575	0.29842
621.03706	0.30316
619.10837	0.30821
617.17969	0.30661
615.25100	0.30210
613.32231	0.29819
611.39363	0.29264
609.46494	0.28077
607.53625	0.26649
605.60757	0.26623
603.67888	0.28394
601.75020	0.30006
599.82151	0.30280
597.89282	0.30207
595.96414	0.30176
594.03545	0.29719
592.10676	0.29194
590.17808	0.28842
588.24939	0.27856
586.32070	0.26589
584.39202	0.26996
582.46333	0.28525
580.53464	0.28894
578.60596	0.28123
576.67727	0.27021
574.74858	0.26017
572.81990	0.25416
570.89121	0.25532
568.96252	0.26341
567.03384	0.27019
565.10515	0.27129
563.17646	0.27715
561.24778	0.29087
559.31909	0.29499
557.39041	0.28329
555.46172	0.26315
553.53303	0.22352
551.60435	0.17371
549.67566	0.15861
547.74697	0.17052
545.81829	0.16078
543.88960	0.15320
541.96091	0.18619
540.03223	0.21504
538.10354	0.19209
536.17485	0.13184
534.24617	0.07441
532.31748	0.07738
530.38879	0.20067
528.46011	0.34130
526.53142	0.32131
524.60273	0.19881
522.67405	0.09103
520.74536	0.04429
518.81667	0.08002
516.88799	0.15580
514.95930	0.19826
513.03062	0.19718
511.10193	0.18284
509.17324	0.26237
507.24456	0.48776
505.31587	0.76882
503.38718	0.63103
501.45850	0.27824
499.52981	0.35561
497.60112	0.27674
495.67244	0.06986
493.74375	0.79302
491.81506	1.92324
489.88638	0.28863
487.95769	-0.00409
486.02900	0.03454
484.10032	0.67743
482.17163	1.58339
480.24294	1.80025
478.31426	2.27612
476.38557	2.22889
474.45688	1.34153
472.52820	0.08308
470.59951	-0.18015
468.67083	-0.12310
466.74214	0.50658
464.81345	1.96345
462.88477	1.16828
460.95608	0.76107
459.02739	0.64486
457.09871	-0.32970
455.17002	-1.35535
453.24133	-2.92223
451.31265	-2.92223
449.38396	0.59063
447.45527	0.52932
445.52659	0.09463
443.59790	-1.31049
441.66921	-0.60875
439.74053	0.33589
437.81184	0.84251
435.88315	1.14010
433.95447	1.98245
432.02578	3.03028
430.09709	1.88296
428.16841	1.19450
426.23972	1.31872
424.31104	2.30908
422.38235	2.82561
420.45366	0.88067
418.52498	0.35974
416.59629	0.32674
414.66760	0.52236
412.73892	0.73022
410.81023	0.83609
408.88154	1.19197
406.95286	1.44708
405.02417	0.63776
403.09548	-0.84502
401.16680	-0.35680
399.23811	1.26881
