3996.23848	0.37129
3994.30979	0.37605
3992.38110	0.38155
3990.45242	0.38493
3988.52373	0.38443
3986.59504	0.38167
3984.66636	0.38141
3982.73767	0.38411
3980.80898	0.38440
3978.88030	0.38161
3976.95161	0.38079
3975.02292	0.38301
3973.09424	0.38502
3971.16555	0.38500
3969.23687	0.38370
3967.30818	0.38189
3965.37949	0.38031
3963.45081	0.38095
3961.52212	0.38468
3959.59343	0.38803
3957.66475	0.38846
3955.73606	0.38727
3953.80737	0.38398
3951.87869	0.38033
3949.95000	0.38108
3948.02131	0.38370
3946.09263	0.38159
3944.16394	0.37687
3942.23525	0.37563
3940.30657	0.37706
3938.37788	0.37892
3936.44919	0.38177
3934.52051	0.38420
3932.59182	0.38291
3930.66313	0.37944
3928.73445	0.37841
3926.80576	0.37951
3924.87708	0.38113
3922.94839	0.38265
3921.01970	0.38533
3919.09102	0.39159
3917.16233	0.39514
3915.23364	0.38978
3913.30496	0.38276
3911.37627	0.38093
3909.44758	0.38094
3907.51890	0.38048
3905.59021	0.38129
3903.66152	0.38216
3901.73284	0.38213
3899.80415	0.38288
3897.87546	0.38298
3895.94678	0.38020
3894.01809	0.37831
3892.08940	0.37916
3890.16072	0.37890
3888.23203	0.37792
3886.30334	0.37785
3884.37466	0.37924
3882.44597	0.38336
3880.51729	0.38611
3878.58860	0.38281
3876.65991	0.37894
3874.73123	0.38293
3872.80254	0.39058
3870.87385	0.39104
3868.94517	0.38437
3867.01648	0.37886
3865.08779	0.37779
3863.15911	0.37899
3861.23042	0.38123
3859.30173	0.38398
3857.37305	0.38705
3855.44436	0.39093
3853.51567	0.39205
3851.58699	0.38755
3849.65830	0.38315
3847.72961	0.38304
3845.80093	0.38381
3843.87224	0.38296
3841.94355	0.38305
3840.01487	0.38343
3838.08618	0.38086
3836.15750	0.37723
3834.22881	0.37543
3832.30012	0.37430
3830.37144	0.37180
3828.44275	0.36902
3826.51406	0.36868
3824.58538	0.37166
3822.65669	0.37767
3820.72800	0.38308
3818.79932	0.38416
3816.87063	0.38265
3814.94194	0.37934
3813.01326	0.37531
3811.08457	0.37462
3809.15588	0.37863
3807.22720	0.38413
3805.29851	0.38645
3803.36982	0.38545
3801.44114	0.38339
3799.51245	0.38160
3797.58376	0.38102
3795.65508	0.38027
3793.72639	0.37730
3791.79771	0.37319
3789.86902	0.37095
3787.94033	0.37205
3786.01165	0.37529
3784.08296	0.37753
3782.15427	0.37649
3780.22559	0.37195
3778.29690	0.36580
3776.36821	0.36388
3774.43953	0.36882
3772.51084	0.37449
3770.58215	0.37614
3768.65347	0.37568
3766.72478	0.37554
3764.79609	0.37613
3762.86741	0.37559
3760.93872	0.37267
3759.01003	0.37024
3757.08135	0.37025
3755.15266	0.37217
3753.22397	0.37663
3751.29529	0.38105
3749.36660	0.37994
3747.43792	0.37651
3745.50923	0.37663
3743.58054	0.37584
3741.65186	0.37109
3739.72317	0.36826
3737.79448	0.36994
3735.86580	0.37210
3733.93711	0.37055
3732.00842	0.36731
3730.07974	0.36611
3728.15105	0.36598
3726.22236	0.36489
3724.29368	0.36340
3722.36499	0.36324
3720.43630	0.36451
3718.50762	0.36426
3716.57893	0.36192
3714.65024	0.36168
3712.72156	0.36368
3710.79287	0.36524
3708.86418	0.36666
3706.93550	0.36506
3705.00681	0.36066
3703.07812	0.35927
3701.14944	0.35760
3699.22075	0.35296
3697.29207	0.35264
3695.36338	0.35565
3693.43469	0.35626
3691.50601	0.35705
3689.57732	0.35848
3687.64863	0.35733
3685.71995	0.35441
3683.79126	0.35024
3681.86257	0.34570
3679.93389	0.34593
3678.00520	0.35327
3676.07651	0.36121
3674.14783	0.36249
3672.21914	0.35843
3670.29045	0.35233
3668.36177	0.34675
3666.43308	0.34432
3664.50439	0.34364
3662.57571	0.34405
3660.64702	0.34743
3658.71833	0.35149
3656.78965	0.35190
3654.86096	0.34971
3652.93228	0.34976
3651.00359	0.35343
3649.07490	0.35810
3647.14622	0.36064
3645.21753	0.35767
3643.28884	0.35035
3641.36016	0.34549
3639.43147	0.34463
3637.50278	0.34371
3635.57410	0.34195
3633.64541	0.34163
3631.71672	0.34531
3629.78804	0.35183
3627.85935	0.35524
3625.93066	0.35363
3624.00198	0.34975
3622.07329	0.34526
3620.14460	0.34277
3618.21592	0.34394
3616.28723	0.34490
3614.35854	0.34404
3612.42986	0.34531
3610.50117	0.34817
3608.57249	0.34877
3606.64380	0.34809
3604.71511	0.34891
3602.78643	0.35030
3600.85774	0.34953
3598.92905	0.34708
3597.00037	0.34569
3595.07168	0.34512
3593.14299	0.34402
3591.21431	0.34472
3589.28562	0.34717
3587.35693	0.34629
3585.42825	0.34246
3583.49956	0.34169
3581.57087	0.34550
3579.64219	0.34903
3577.71350	0.35068
3575.78481	0.35332
3573.85613	0.35304
3571.92744	0.34794
3569.99875	0.34654
3568.07007	0.35136
3566.14138	0.35577
3564.21270	0.35641
3562.28401	0.35465
3560.35532	0.35224
3558.42664	0.34997
3556.49795	0.34801
3554.56926	0.34622
3552.64058	0.34437
3550.71189	0.34223
3548.78320	0.34148
3546.85452	0.34382
3544.92583	0.34659
3542.99714	0.34732
3541.06846	0.34690
3539.13977	0.34487
3537.21108	0.34199
3535.28240	0.34197
3533.35371	0.34468
3531.42502	0.34791
3529.49634	0.35052
3527.56765	0.34975
3525.63896	0.34699
3523.71028	0.34660
3521.78159	0.34714
3519.85291	0.34792
3517.92422	0.35102
3515.99553	0.35266
3514.06685	0.35002
3512.13816	0.34802
3510.20947	0.34865
3508.28079	0.34926
3506.35210	0.34793
3504.42341	0.34425
3502.49473	0.34309
3500.56604	0.34728
3498.63735	0.35047
3496.70867	0.34813
3494.77998	0.34339
3492.85129	0.34091
3490.92261	0.34041
3488.99392	0.33974
3487.06523	0.34002
3485.13655	0.34029
3483.20786	0.33882
3481.27917	0.33897
3479.35049	0.34294
3477.42180	0.34762
3475.49312	0.34902
3473.56443	0.34711
3471.63574	0.34621
3469.70706	0.34909
3467.77837	0.35473
3465.84968	0.35973
3463.92100	0.35986
3461.99231	0.35619
3460.06362	0.35158
3458.13494	0.34732
3456.20625	0.34804
3454.27756	0.35229
3452.34888	0.35176
3450.42019	0.34709
3448.49150	0.34405
3446.56282	0.34431
3444.63413	0.34680
3442.70544	0.34802
3440.77676	0.34592
3438.84807	0.34323
3436.91938	0.34177
3434.99070	0.34102
3433.06201	0.34233
3431.13333	0.34616
3429.20464	0.34975
3427.27595	0.35117
3425.34727	0.35110
3423.41858	0.35155
3421.48989	0.35357
3419.56121	0.35410
3417.63252	0.34963
3415.70383	0.34401
3413.77515	0.34395
3411.84646	0.34821
3409.91777	0.35087
3407.98909	0.35124
3406.06040	0.35214
3404.13171	0.35344
3402.20303	0.35282
3400.27434	0.34917
3398.34565	0.34479
3396.41697	0.34364
3394.48828	0.34519
3392.55959	0.34555
3390.63091	0.34495
3388.70222	0.34574
3386.77354	0.34654
3384.84485	0.34786
3382.91616	0.35158
3380.98748	0.35398
3379.05879	0.35310
3377.13010	0.35142
3375.20142	0.35016
3373.27273	0.34924
3371.34404	0.34770
3369.41536	0.34697
3367.48667	0.34793
3365.55798	0.34816
3363.62930	0.34874
3361.70061	0.35026
3359.77192	0.34951
3357.84324	0.34478
3355.91455	0.33867
3353.98586	0.33793
3352.05718	0.34324
3350.12849	0.34599
3348.19980	0.34380
3346.27112	0.34292
3344.34243	0.34324
3342.41375	0.34143
3340.48506	0.34145
3338.55637	0.34573
3336.62769	0.34963
3334.69900	0.34946
3332.77031	0.34666
3330.84163	0.34622
3328.91294	0.34954
3326.98425	0.35135
3325.05557	0.34825
3323.12688	0.34429
3321.19819	0.34631
3319.26951	0.35453
3317.34082	0.35987
3315.41213	0.35630
3313.48345	0.35041
3311.55476	0.34857
3309.62607	0.34775
3307.69739	0.34625
3305.76870	0.34558
3303.84001	0.34453
3301.91133	0.34396
3299.98264	0.34667
3298.05396	0.35060
3296.12527	0.35189
3294.19658	0.35107
3292.26790	0.34880
3290.33921	0.34389
3288.41052	0.34042
3286.48184	0.34325
3284.55315	0.34851
3282.62446	0.35001
3280.69578	0.34943
3278.76709	0.35097
3276.83840	0.35194
3274.90972	0.34881
3272.98103	0.34512
3271.05234	0.34558
3269.12366	0.34907
3267.19497	0.35076
3265.26628	0.35053
3263.33760	0.35098
3261.40891	0.35023
3259.48022	0.35002
3257.55154	0.35388
3255.62285	0.35611
3253.69417	0.35275
3251.76548	0.34906
3249.83679	0.34980
3247.90811	0.35274
3245.97942	0.35346
3244.05073	0.35235
3242.12205	0.35029
3240.19336	0.34828
3238.26467	0.34950
3236.33599	0.35133
3234.40730	0.34990
3232.47861	0.34721
3230.54993	0.34538
3228.62124	0.34526
3226.69255	0.34654
3224.76387	0.34683
3222.83518	0.34628
3220.90649	0.34740
3218.97781	0.34983
3217.04912	0.35040
3215.12043	0.34861
3213.19175	0.34764
3211.26306	0.34687
3209.33437	0.34314
3207.40569	0.33995
3205.47700	0.34155
3203.54832	0.34581
3201.61963	0.34887
3199.69094	0.34793
3197.76226	0.34368
3195.83357	0.34168
3193.90488	0.34322
3191.97620	0.34196
3190.04751	0.33818
3188.11882	0.33937
3186.19014	0.34397
3184.26145	0.34649
3182.33276	0.34729
3180.40408	0.34740
3178.47539	0.34769
3176.54670	0.34816
3174.61802	0.34765
3172.68933	0.34652
3170.76064	0.34538
3168.83196	0.34509
3166.90327	0.34541
3164.97458	0.34636
3163.04590	0.34958
3161.11721	0.35329
3159.18853	0.35355
3157.25984	0.35013
3155.33115	0.34702
3153.40247	0.34624
3151.47378	0.34623
3149.54509	0.34802
3147.61641	0.35260
3145.68772	0.35573
3143.75903	0.35481
3141.83035	0.35277
3139.90166	0.35148
3137.97297	0.35054
3136.04429	0.35022
3134.11560	0.34942
3132.18691	0.34846
3130.25823	0.34919
3128.32954	0.34969
3126.40085	0.34813
3124.47217	0.34747
3122.54348	0.35036
3120.61479	0.35392
3118.68611	0.35381
3116.75742	0.35077
3114.82874	0.34937
3112.90005	0.35012
3110.97136	0.34886
3109.04268	0.34553
3107.11399	0.34332
3105.18530	0.34353
3103.25662	0.34642
3101.32793	0.34920
3099.39924	0.34914
3097.47056	0.34854
3095.54187	0.34836
3093.61318	0.34747
3091.68450	0.34799
3089.75581	0.34904
3087.82712	0.34693
3085.89844	0.34351
3083.96975	0.34191
3082.04106	0.34236
3080.11238	0.34459
3078.18369	0.34732
3076.25500	0.34840
3074.32632	0.34752
3072.39763	0.34615
3070.46895	0.34646
3068.54026	0.34906
3066.61157	0.35117
3064.68289	0.35118
3062.75420	0.35034
3060.82551	0.34961
3058.89683	0.34991
3056.96814	0.35206
3055.03945	0.35465
3053.11077	0.35509
3051.18208	0.35388
3049.25339	0.35264
3047.32471	0.35199
3045.39602	0.35186
3043.46733	0.34985
3041.53865	0.34664
3039.60996	0.34442
3037.68127	0.34218
3035.75259	0.34180
3033.82390	0.34464
3031.89521	0.34619
3029.96653	0.34400
3028.03784	0.34230
3026.10916	0.34432
3024.18047	0.34764
3022.25178	0.34875
3020.32310	0.34733
3018.39441	0.34695
3016.46572	0.34826
3014.53704	0.34705
3012.60835	0.34360
3010.67966	0.34219
3008.75098	0.34374
3006.82229	0.34624
3004.89360	0.34819
3002.96492	0.34896
3001.03623	0.34753
2999.10754	0.34412
2997.17886	0.34206
2995.25017	0.34376
2993.32148	0.34675
2991.39280	0.34767
2989.46411	0.34651
2987.53542	0.34514
2985.60674	0.34448
2983.67805	0.34483
2981.74937	0.34717
2979.82068	0.34947
2977.89199	0.34761
2975.96331	0.34338
2974.03462	0.34253
2972.10593	0.34466
2970.17725	0.34553
2968.24856	0.34617
2966.31987	0.34769
2964.39119	0.34935
2962.46250	0.35283
2960.53381	0.35577
2958.60513	0.35550
2956.67644	0.35481
2954.74775	0.35329
2952.81907	0.34957
2950.89038	0.34695
2948.96169	0.34686
2947.03301	0.34746
2945.10432	0.34818
2943.17563	0.34932
2941.24695	0.35027
2939.31826	0.35029
2937.38958	0.34971
2935.46089	0.34863
2933.53220	0.34800
2931.60352	0.34859
2929.67483	0.34722
2927.74614	0.34402
2925.81746	0.34420
2923.88877	0.34729
2921.96008	0.34858
2920.03140	0.34733
2918.10271	0.34597
2916.17402	0.34479
2914.24534	0.34272
2912.31665	0.34112
2910.38796	0.34161
2908.45928	0.34431
2906.53059	0.34924
2904.60190	0.35357
2902.67322	0.35344
2900.74453	0.34968
2898.81584	0.34521
2896.88716	0.34296
2894.95847	0.34457
2893.02979	0.34730
2891.10110	0.34805
2889.17241	0.34755
2887.24373	0.34844
2885.31504	0.35041
2883.38635	0.34989
2881.45767	0.34671
2879.52898	0.34473
2877.60029	0.34534
2875.67161	0.34589
2873.74292	0.34448
2871.81423	0.34299
2869.88555	0.34414
2867.95686	0.34749
2866.02817	0.35021
2864.09949	0.35010
2862.17080	0.34745
2860.24211	0.34589
2858.31343	0.34731
2856.38474	0.34953
2854.45605	0.35155
2852.52737	0.35246
2850.59868	0.35129
2848.67000	0.34982
2846.74131	0.34937
2844.81262	0.34937
2842.88394	0.34872
2840.95525	0.34800
2839.02656	0.34919
2837.09788	0.35029
2835.16919	0.34830
2833.24050	0.34455
2831.31182	0.34226
2829.38313	0.34331
2827.45444	0.34582
2825.52576	0.34692
2823.59707	0.34644
2821.66838	0.34410
2819.73970	0.34007
2817.81101	0.33782
2815.88232	0.34012
2813.95364	0.34404
2812.02495	0.34587
2810.09626	0.34593
2808.16758	0.34576
2806.23889	0.34673
2804.31021	0.34807
2802.38152	0.34842
2800.45283	0.34854
2798.52415	0.34727
2796.59546	0.34416
2794.66677	0.34376
2792.73809	0.34737
2790.80940	0.34978
2788.88071	0.34818
2786.95203	0.34468
2785.02334	0.34115
2783.09465	0.33889
2781.16597	0.34022
2779.23728	0.34502
2777.30859	0.34875
2775.37991	0.34968
2773.45122	0.35082
2771.52253	0.35217
2769.59385	0.35111
2767.66516	0.34850
2765.73647	0.34700
2763.80779	0.34669
2761.87910	0.34655
2759.95042	0.34591
2758.02173	0.34406
2756.09304	0.34220
2754.16436	0.34265
2752.23567	0.34587
2750.30698	0.34905
2748.37830	0.34904
2746.44961	0.34712
2744.52092	0.34665
2742.59224	0.34790
2740.66355	0.34827
2738.73486	0.34688
2736.80618	0.34598
2734.87749	0.34666
2732.94880	0.34858
2731.02012	0.35144
2729.09143	0.35273
2727.16274	0.35151
2725.23406	0.35011
2723.30537	0.34871
2721.37668	0.34727
2719.44800	0.34662
2717.51931	0.34566
2715.59062	0.34458
2713.66194	0.34452
2711.73325	0.34530
2709.80457	0.34644
2707.87588	0.34599
2705.94719	0.34359
2704.01851	0.34305
2702.08982	0.34532
2700.16113	0.34632
2698.23245	0.34511
2696.30376	0.34503
2694.37507	0.34669
2692.44639	0.34789
2690.51770	0.34893
2688.58901	0.35090
2686.66033	0.35115
2684.73164	0.34901
2682.80295	0.34802
2680.87427	0.34845
2678.94558	0.34800
2677.01689	0.34671
2675.08821	0.34643
2673.15952	0.34904
2671.23083	0.35272
2669.30215	0.35270
2667.37346	0.34948
2665.44478	0.34761
2663.51609	0.34828
2661.58740	0.34992
2659.65872	0.35075
2657.73003	0.35056
2655.80134	0.35080
2653.87266	0.35098
2651.94397	0.34985
2650.01528	0.34862
2648.08660	0.34832
2646.15791	0.34811
2644.22922	0.34798
2642.30054	0.34848
2640.37185	0.34897
2638.44316	0.34861
2636.51448	0.34698
2634.58579	0.34473
2632.65710	0.34325
2630.72842	0.34297
2628.79973	0.34381
2626.87104	0.34628
2624.94236	0.35002
2623.01367	0.35260
2621.08499	0.35270
2619.15630	0.35180
2617.22761	0.35167
2615.29893	0.35231
2613.37024	0.35220
2611.44155	0.35065
2609.51287	0.34860
2607.58418	0.34692
2605.65549	0.34530
2603.72681	0.34326
2601.79812	0.34222
2599.86943	0.34348
2597.94075	0.34587
2596.01206	0.34821
2594.08337	0.35043
2592.15469	0.35196
2590.22600	0.35133
2588.29731	0.34883
2586.36863	0.34731
2584.43994	0.34826
2582.51125	0.35043
2580.58257	0.35141
2578.65388	0.35077
2576.72520	0.34967
2574.79651	0.34750
2572.86782	0.34517
2570.93914	0.34487
2569.01045	0.34613
2567.08176	0.34762
2565.15308	0.34849
2563.22439	0.34879
2561.29570	0.34913
2559.36702	0.34990
2557.43833	0.34977
2555.50964	0.34695
2553.58096	0.34411
2551.65227	0.34373
2549.72358	0.34512
2547.79490	0.34874
2545.86621	0.35313
2543.93752	0.35405
2542.00884	0.35114
2540.08015	0.34902
2538.15146	0.35044
2536.22278	0.35252
2534.29409	0.35165
2532.36541	0.34851
2530.43672	0.34655
2528.50803	0.34720
2526.57935	0.34842
2524.65066	0.34901
2522.72197	0.35015
2520.79329	0.35170
2518.86460	0.35181
2516.93591	0.35101
2515.00723	0.35068
2513.07854	0.35008
2511.14985	0.34888
2509.22117	0.34732
2507.29248	0.34489
2505.36379	0.34307
2503.43511	0.34444
2501.50642	0.34721
2499.57773	0.34746
2497.64905	0.34602
2495.72036	0.34666
2493.79167	0.35028
2491.86299	0.35403
2489.93430	0.35469
2488.00562	0.35199
2486.07693	0.34888
2484.14824	0.34822
2482.21956	0.34960
2480.29087	0.35100
2478.36218	0.35076
2476.43350	0.34899
2474.50481	0.34839
2472.57612	0.34966
2470.64744	0.35054
2468.71875	0.35002
2466.79006	0.34912
2464.86138	0.34899
2462.93269	0.34908
2461.00400	0.34822
2459.07532	0.34723
2457.14663	0.34723
2455.21794	0.34739
2453.28926	0.34688
2451.36057	0.34572
2449.43188	0.34434
2447.50320	0.34397
2445.57451	0.34424
2443.64583	0.34459
2441.71714	0.34605
2439.78845	0.34704
2437.85977	0.34569
2435.93108	0.34448
2434.00239	0.34564
2432.07371	0.34772
2430.14502	0.34934
2428.21633	0.34951
2426.28765	0.34744
2424.35896	0.34643
2422.43027	0.34832
2420.50159	0.34937
2418.57290	0.34957
2416.64421	0.35120
2414.71553	0.35164
2412.78684	0.34990
2410.85815	0.34864
2408.92947	0.34840
2407.00078	0.34858
2405.07209	0.34960
2403.14341	0.35103
2401.21472	0.35143
2399.28604	0.35148
2397.35735	0.35232
2395.42866	0.35120
2393.49998	0.34686
2391.57129	0.34409
2389.64260	0.34633
2387.71392	0.35071
2385.78523	0.35251
2383.85654	0.35138
2381.92786	0.35085
2379.99917	0.35251
2378.07048	0.35482
2376.14180	0.35688
2374.21311	0.36014
2372.28442	0.36631
2370.35574	0.37397
2368.42705	0.38037
2366.49836	0.38510
2364.56968	0.38845
2362.64099	0.39073
2360.71230	0.39166
2358.78362	0.38899
2356.85493	0.38306
2354.92625	0.37653
2352.99756	0.36959
2351.06887	0.36315
2349.14019	0.36003
2347.21150	0.36141
2345.28281	0.36578
2343.35413	0.37031
2341.42544	0.37314
2339.49675	0.37418
2337.56807	0.37528
2335.63938	0.37717
2333.71069	0.37769
2331.78201	0.37681
2329.85332	0.37668
2327.92463	0.37603
2325.99595	0.37277
2324.06726	0.36821
2322.13857	0.36452
2320.20989	0.36230
2318.28120	0.35990
2316.35251	0.35631
2314.42383	0.35417
2312.49514	0.35517
2310.56646	0.35695
2308.63777	0.35639
2306.70908	0.35348
2304.78040	0.35097
2302.85171	0.35026
2300.92302	0.35058
2298.99434	0.35047
2297.06565	0.35009
2295.13696	0.35102
2293.20828	0.35166
2291.27959	0.35050
2289.35090	0.34957
2287.42222	0.34938
2285.49353	0.34844
2283.56484	0.34732
2281.63616	0.34768
2279.70747	0.34880
2277.77878	0.34881
2275.85010	0.34779
2273.92141	0.34722
2271.99272	0.34815
2270.06404	0.34955
2268.13535	0.34990
2266.20667	0.35011
2264.27798	0.35097
2262.34929	0.35111
2260.42061	0.34949
2258.49192	0.34743
2256.56323	0.34739
2254.63455	0.34911
2252.70586	0.35006
2250.77717	0.34974
2248.84849	0.34922
2246.91980	0.34902
2244.99111	0.34827
2243.06243	0.34642
2241.13374	0.34512
2239.20505	0.34629
2237.27637	0.34882
2235.34768	0.34988
2233.41899	0.34917
2231.49031	0.34916
2229.56162	0.35137
2227.63293	0.35258
2225.70425	0.34989
2223.77556	0.34693
2221.84687	0.34675
2219.91819	0.34731
2217.98950	0.34681
2216.06082	0.34636
2214.13213	0.34632
2212.20344	0.34576
2210.27476	0.34588
2208.34607	0.34732
2206.41738	0.34862
2204.48870	0.34898
2202.56001	0.34916
2200.63132	0.35014
2198.70264	0.35099
2196.77395	0.35113
2194.84526	0.35087
2192.91658	0.34974
2190.98789	0.34750
2189.05920	0.34520
2187.13052	0.34419
2185.20183	0.34437
2183.27314	0.34535
2181.34446	0.34742
2179.41577	0.34921
2177.48708	0.34893
2175.55840	0.34733
2173.62971	0.34585
2171.70103	0.34451
2169.77234	0.34368
2167.84365	0.34436
2165.91497	0.34643
2163.98628	0.34840
2162.05759	0.34830
2160.12891	0.34607
2158.20022	0.34449
2156.27153	0.34551
2154.34285	0.34761
2152.41416	0.34832
2150.48547	0.34774
2148.55679	0.34776
2146.62810	0.34865
2144.69941	0.34864
2142.77073	0.34788
2140.84204	0.34766
2138.91335	0.34715
2136.98467	0.34725
2135.05598	0.34941
2133.12729	0.35025
2131.19861	0.34781
2129.26992	0.34524
2127.34124	0.34438
2125.41255	0.34505
2123.48386	0.34628
2121.55518	0.34656
2119.62649	0.34619
2117.69780	0.34627
2115.76912	0.34696
2113.84043	0.34833
2111.91174	0.34983
2109.98306	0.34976
2108.05437	0.34742
2106.12568	0.34533
2104.19700	0.34570
2102.26831	0.34685
2100.33962	0.34713
2098.41094	0.34754
2096.48225	0.34868
2094.55356	0.34942
2092.62488	0.34883
2090.69619	0.34723
2088.76750	0.34574
2086.83882	0.34585
2084.91013	0.34695
2082.98145	0.34680
2081.05276	0.34603
2079.12407	0.34626
2077.19539	0.34699
2075.26670	0.34757
2073.33801	0.34835
2071.40933	0.34939
2069.48064	0.34945
2067.55195	0.34824
2065.62327	0.34783
2063.69458	0.34896
2061.76589	0.35011
2059.83721	0.35103
2057.90852	0.35154
2055.97983	0.35074
2054.05115	0.35021
2052.12246	0.35169
2050.19377	0.35300
2048.26509	0.35197
2046.33640	0.34990
2044.40771	0.34828
2042.47903	0.34757
2040.55034	0.34742
2038.62166	0.34709
2036.69297	0.34677
2034.76428	0.34612
2032.83560	0.34550
2030.90691	0.34562
2028.97822	0.34565
2027.04954	0.34602
2025.12085	0.34722
2023.19216	0.34775
2021.26348	0.34682
2019.33479	0.34619
2017.40610	0.34727
2015.47742	0.34858
2013.54873	0.34881
2011.62004	0.34845
2009.69136	0.34823
2007.76267	0.34843
2005.83398	0.34851
2003.90530	0.34827
2001.97661	0.34858
2000.04792	0.34871
1998.11924	0.34784
1996.19055	0.34831
1994.26187	0.35070
1992.33318	0.35228
1990.40449	0.35228
1988.47581	0.35163
1986.54712	0.35068
1984.61843	0.34928
1982.68975	0.34760
1980.76106	0.34683
1978.83237	0.34706
1976.90369	0.34783
1974.97500	0.34943
1973.04631	0.35014
1971.11763	0.34825
1969.18894	0.34560
1967.26025	0.34477
1965.33157	0.34573
1963.40288	0.34565
1961.47419	0.34445
1959.54551	0.34531
1957.61682	0.34708
1955.68813	0.34708
1953.75945	0.34642
1951.83076	0.34644
1949.90208	0.34720
1947.97339	0.34790
1946.04470	0.34763
1944.11602	0.34747
1942.18733	0.34765
1940.25864	0.34666
1938.32996	0.34573
1936.40127	0.34693
1934.47258	0.34970
1932.54390	0.35140
1930.61521	0.35025
1928.68652	0.34806
1926.75784	0.34734
1924.82915	0.34794
1922.90046	0.34841
1920.97178	0.34816
1919.04309	0.34781
1917.11440	0.34768
1915.18572	0.34741
1913.25703	0.34671
1911.32834	0.34598
1909.39966	0.34611
1907.47097	0.34774
1905.54229	0.35004
1903.61360	0.35041
1901.68491	0.34878
1899.75623	0.34806
1897.82754	0.34890
1895.89885	0.34934
1893.97017	0.34785
1892.04148	0.34549
1890.11279	0.34464
1888.18411	0.34584
1886.25542	0.34790
1884.32673	0.34928
1882.39805	0.34937
1880.46936	0.34911
1878.54067	0.34865
1876.61199	0.34748
1874.68330	0.34720
1872.75461	0.34884
1870.82593	0.35070
1868.89724	0.35095
1866.96855	0.34924
1865.03987	0.34735
1863.11118	0.34719
1861.18250	0.34799
1859.25381	0.34840
1857.32512	0.34821
1855.39644	0.34704
1853.46775	0.34542
1851.53906	0.34559
1849.61038	0.34786
1847.68169	0.35031
1845.75300	0.35214
1843.82432	0.35223
1841.89563	0.34985
1839.96694	0.34810
1838.03826	0.34888
1836.10957	0.35009
1834.18088	0.35064
1832.25220	0.35205
1830.32351	0.35383
1828.39482	0.35334
1826.46614	0.35084
1824.53745	0.34871
1822.60876	0.34788
1820.68008	0.34803
1818.75139	0.34859
1816.82271	0.34904
1814.89402	0.34893
1812.96533	0.34870
1811.03665	0.34880
1809.10796	0.34855
1807.17927	0.34765
1805.25059	0.34702
1803.32190	0.34753
1801.39321	0.34845
1799.46453	0.34844
1797.53584	0.34735
1795.60715	0.34692
1793.67847	0.34879
1791.74978	0.34970
1789.82109	0.34720
1787.89241	0.34580
1785.96372	0.34755
1784.03503	0.34935
1782.10635	0.34972
1780.17766	0.34958
1778.24897	0.35010
1776.32029	0.35139
1774.39160	0.35307
1772.46292	0.35421
1770.53423	0.35332
1768.60554	0.35122
1766.67686	0.34983
1764.74817	0.35000
1762.81948	0.35115
1760.89080	0.35058
1758.96211	0.34730
1757.03342	0.34362
1755.10474	0.34269
1753.17605	0.34636
1751.24736	0.35179
1749.31868	0.35368
1747.38999	0.35134
1745.46130	0.34834
1743.53262	0.34710
1741.60393	0.34727
1739.67524	0.34781
1737.74656	0.34863
1735.81787	0.34993
1733.88918	0.34963
1731.96050	0.34726
1730.03181	0.34663
1728.10312	0.34750
1726.17444	0.34656
1724.24575	0.34454
1722.31707	0.34454
1720.38838	0.34775
1718.45969	0.35109
1716.53101	0.35020
1714.60232	0.34528
1712.67363	0.34021
1710.74495	0.33887
1708.81626	0.34213
1706.88757	0.34584
1704.95889	0.34724
1703.03020	0.35024
1701.10151	0.35474
1699.17283	0.35510
1697.24414	0.35348
1695.31545	0.35231
1693.38677	0.34909
1691.45808	0.34623
1689.52939	0.34585
1687.60071	0.34775
1685.67202	0.35173
1683.74333	0.35261
1681.81465	0.34807
1679.88596	0.34521
1677.95728	0.34802
1676.02859	0.35175
1674.09990	0.35199
1672.17122	0.35182
1670.24253	0.35259
1668.31384	0.35005
1666.38516	0.34607
1664.45647	0.34609
1662.52778	0.34691
1660.59910	0.34436
1658.67041	0.34203
1656.74172	0.34429
1654.81304	0.35124
1652.88435	0.35502
1650.95566	0.34996
1649.02698	0.34503
1647.09829	0.34487
1645.16960	0.34428
1643.24092	0.34172
1641.31223	0.34124
1639.38354	0.34510
1637.45486	0.35142
1635.52617	0.35531
1633.59749	0.35381
1631.66880	0.34967
1629.74011	0.34633
1627.81143	0.34520
1625.88274	0.34541
1623.95405	0.34494
1622.02537	0.34393
1620.09668	0.34486
1618.16799	0.34872
1616.23931	0.35074
1614.31062	0.34800
1612.38193	0.34500
1610.45325	0.34342
1608.52456	0.34205
1606.59587	0.34137
1604.66719	0.34072
1602.73850	0.33946
1600.80981	0.33884
1598.88113	0.33833
1596.95244	0.33739
1595.02375	0.33729
1593.09507	0.33823
1591.16638	0.33966
1589.23770	0.33932
1587.30901	0.33542
1585.38032	0.33157
1583.45164	0.33147
1581.52295	0.33422
1579.59426	0.33859
1577.66558	0.34379
1575.73689	0.34558
1573.80820	0.34275
1571.87952	0.34038
1569.95083	0.33959
1568.02214	0.33884
1566.09346	0.33935
1564.16477	0.34265
1562.23608	0.35003
1560.30740	0.35936
1558.37871	0.36217
1556.45002	0.35665
1554.52134	0.34987
1552.59265	0.34417
1550.66396	0.34046
1548.73528	0.34001
1546.80659	0.34167
1544.87791	0.34515
1542.94922	0.35055
1541.02053	0.35455
1539.09185	0.35264
1537.16316	0.34805
1535.23447	0.34729
1533.30579	0.34843
1531.37710	0.34679
1529.44841	0.34385
1527.51973	0.34252
1525.59104	0.34405
1523.66235	0.34972
1521.73367	0.35610
1519.80498	0.35563
1517.87629	0.34879
1515.94761	0.34273
1514.01892	0.34067
1512.09023	0.34059
1510.16155	0.34249
1508.23286	0.34910
1506.30417	0.35512
1504.37549	0.35215
1502.44680	0.34473
1500.51812	0.34141
1498.58943	0.34301
1496.66074	0.34352
1494.73206	0.33983
1492.80337	0.33689
1490.87468	0.33910
1488.94600	0.34381
1487.01731	0.34516
1485.08862	0.34244
1483.15994	0.33966
1481.23125	0.33885
1479.30256	0.33972
1477.37388	0.34205
1475.44519	0.34501
1473.51650	0.34694
1471.58782	0.34579
1469.65913	0.34199
1467.73044	0.33946
1465.80176	0.33886
1463.87307	0.33873
1461.94438	0.34149
1460.01570	0.34791
1458.08701	0.35273
1456.15833	0.35055
1454.22964	0.34417
1452.30095	0.33901
1450.37227	0.33564
1448.44358	0.33411
1446.51489	0.33528
1444.58621	0.33784
1442.65752	0.33885
1440.72883	0.33817
1438.80015	0.33903
1436.87146	0.34040
1434.94277	0.33914
1433.01409	0.33824
1431.08540	0.33958
1429.15671	0.33994
1427.22803	0.33929
1425.29934	0.34007
1423.37065	0.34151
1421.44197	0.34247
1419.51328	0.34223
1417.58459	0.34021
1415.65591	0.33813
1413.72722	0.33731
1411.79854	0.33754
1409.86985	0.33778
1407.94116	0.33704
1406.01248	0.33660
1404.08379	0.33709
1402.15510	0.33726
1400.22642	0.33750
1398.29773	0.33813
1396.36904	0.33830
1394.44036	0.33789
1392.51167	0.33694
1390.58298	0.33611
1388.65430	0.33631
1386.72561	0.33655
1384.79692	0.33567
1382.86824	0.33447
1380.93955	0.33512
1379.01086	0.33803
1377.08218	0.34010
1375.15349	0.33959
1373.22480	0.33874
1371.29612	0.33986
1369.36743	0.34140
1367.43875	0.34043
1365.51006	0.33876
1363.58137	0.33916
1361.65269	0.33966
1359.72400	0.33947
1357.79531	0.33972
1355.86663	0.33904
1353.93794	0.33776
1352.00925	0.33779
1350.08057	0.33830
1348.15188	0.33823
1346.22319	0.33834
1344.29451	0.33944
1342.36582	0.34053
1340.43713	0.34075
1338.50845	0.34149
1336.57976	0.34216
1334.65107	0.34057
1332.72239	0.33790
1330.79370	0.33681
1328.86501	0.33660
1326.93633	0.33470
1325.00764	0.33236
1323.07896	0.33254
1321.15027	0.33453
1319.22158	0.33760
1317.29290	0.34084
1315.36421	0.34058
1313.43552	0.33666
1311.50684	0.33329
1309.57815	0.33264
1307.64946	0.33309
1305.72078	0.33372
1303.79209	0.33524
1301.86340	0.33599
1299.93472	0.33573
1298.00603	0.33631
1296.07734	0.33602
1294.14866	0.33413
1292.21997	0.33348
1290.29128	0.33339
1288.36260	0.33188
1286.43391	0.33127
1284.50522	0.33251
1282.57654	0.33376
1280.64785	0.33483
1278.71917	0.33563
1276.79048	0.33607
1274.86179	0.33675
1272.93311	0.33754
1271.00442	0.33774
1269.07573	0.33683
1267.14705	0.33579
1265.21836	0.33565
1263.28967	0.33532
1261.36099	0.33428
1259.43230	0.33498
1257.50361	0.33726
1255.57493	0.33722
1253.64624	0.33531
1251.71755	0.33506
1249.78887	0.33642
1247.86018	0.33727
1245.93149	0.33696
1244.00281	0.33611
1242.07412	0.33538
1240.14543	0.33567
1238.21675	0.33723
1236.28806	0.33886
1234.35937	0.33973
1232.43069	0.33850
1230.50200	0.33402
1228.57332	0.32949
1226.64463	0.32848
1224.71594	0.32964
1222.78726	0.33062
1220.85857	0.33124
1218.92988	0.33160
1217.00120	0.33196
1215.07251	0.33331
1213.14382	0.33555
1211.21514	0.33675
1209.28645	0.33598
1207.35776	0.33499
1205.42908	0.33421
1203.50039	0.33323
1201.57170	0.33429
1199.64302	0.33698
1197.71433	0.33708
1195.78564	0.33403
1193.85696	0.33135
1191.92827	0.33064
1189.99958	0.33035
1188.07090	0.33001
1186.14221	0.33121
1184.21353	0.33415
1182.28484	0.33750
1180.35615	0.33912
1178.42747	0.33670
1176.49878	0.33193
1174.57009	0.32953
1172.64141	0.33035
1170.71272	0.33238
1168.78403	0.33378
1166.85535	0.33379
1164.92666	0.33299
1162.99797	0.33174
1161.06929	0.33116
1159.14060	0.33225
1157.21191	0.33432
1155.28323	0.33552
1153.35454	0.33473
1151.42585	0.33434
1149.49717	0.33638
1147.56848	0.33732
1145.63979	0.33445
1143.71111	0.33222
1141.78242	0.33393
1139.85374	0.33674
1137.92505	0.33824
1135.99636	0.33844
1134.06768	0.33749
1132.13899	0.33571
1130.21030	0.33367
1128.28162	0.33179
1126.35293	0.33196
1124.42424	0.33512
1122.49556	0.33724
1120.56687	0.33479
1118.63818	0.33011
1116.70950	0.32797
1114.78081	0.32949
1112.85212	0.33227
1110.92344	0.33539
1108.99475	0.33827
1107.06606	0.33889
1105.13738	0.33636
1103.20869	0.33338
1101.28000	0.33339
1099.35132	0.33474
1097.42263	0.33394
1095.49395	0.33355
1093.56526	0.33646
1091.63657	0.33802
1089.70789	0.33596
1087.77920	0.33465
1085.85051	0.33461
1083.92183	0.33334
1081.99314	0.33203
1080.06445	0.33127
1078.13577	0.32925
1076.20708	0.32719
1074.27839	0.32867
1072.34971	0.33268
1070.42102	0.33417
1068.49233	0.33412
1066.56365	0.33610
1064.63496	0.33669
1062.70627	0.33478
1060.77759	0.33433
1058.84890	0.33486
1056.92021	0.33533
1054.99153	0.33619
1053.06284	0.33520
1051.13416	0.33168
1049.20547	0.32958
1047.27678	0.33216
1045.34810	0.33579
1043.41941	0.33522
1041.49072	0.33321
1039.56204	0.33287
1037.63335	0.33127
1035.70466	0.32908
1033.77598	0.32828
1031.84729	0.32681
1029.91860	0.32597
1027.98992	0.32916
1026.06123	0.33413
1024.13254	0.33470
1022.20386	0.32934
1020.27517	0.32520
1018.34648	0.32789
1016.41780	0.33328
1014.48911	0.33577
1012.56042	0.33504
1010.63174	0.33338
1008.70305	0.33154
1006.77437	0.32887
1004.84568	0.32700
1002.91699	0.32688
1000.98831	0.32615
999.05962	0.32443
997.13093	0.32478
995.20225	0.32749
993.27356	0.32774
991.34487	0.32470
989.41619	0.32377
987.48750	0.32629
985.55881	0.32807
983.63013	0.32771
981.70144	0.32809
979.77275	0.32981
977.84407	0.33033
975.91538	0.32767
973.98669	0.32278
972.05801	0.32020
970.12932	0.32225
968.20063	0.32537
966.27195	0.32536
964.34326	0.32244
962.41458	0.32121
960.48589	0.32438
958.55720	0.32937
956.62852	0.33306
954.69983	0.33375
952.77114	0.33123
950.84246	0.32901
948.91377	0.32951
946.98508	0.33032
945.05640	0.32972
943.12771	0.32762
941.19902	0.32499
939.27034	0.32438
937.34165	0.32515
935.41296	0.32495
933.48428	0.32496
931.55559	0.32664
929.62690	0.32882
927.69822	0.32860
925.76953	0.32553
923.84084	0.32341
921.91216	0.32310
919.98347	0.32343
918.05479	0.32568
916.12610	0.32779
914.19741	0.32785
912.26873	0.32952
910.34004	0.33279
908.41135	0.33343
906.48267	0.33138
904.55398	0.32882
902.62529	0.32695
900.69661	0.32642
898.76792	0.32692
896.83923	0.32744
894.91055	0.32643
892.98186	0.32393
891.05317	0.32194
889.12449	0.32211
887.19580	0.32414
885.26711	0.32623
883.33843	0.32712
881.40974	0.32628
879.48105	0.32494
877.55237	0.32417
875.62368	0.32260
873.69500	0.32092
871.76631	0.32045
869.83762	0.32050
867.90894	0.32205
865.98025	0.32589
864.05156	0.32881
862.12288	0.32733
860.19419	0.32360
858.26550	0.32203
856.33682	0.32274
854.40813	0.32480
852.47944	0.32674
850.55076	0.32528
848.62207	0.32237
846.69338	0.32247
844.76470	0.32542
842.83601	0.32917
840.90732	0.33121
838.97864	0.33078
837.04995	0.32950
835.12126	0.32670
833.19258	0.32229
831.26389	0.32046
829.33521	0.32253
827.40652	0.32324
825.47783	0.31977
823.54915	0.31640
821.62046	0.31645
819.69177	0.31825
817.76309	0.31965
815.83440	0.31941
813.90571	0.31753
811.97703	0.31569
810.04834	0.31523
808.11965	0.31685
806.19097	0.31899
804.26228	0.31978
802.33359	0.32137
800.40491	0.32435
798.47622	0.32470
796.54753	0.32196
794.61885	0.32016
792.69016	0.31778
790.76147	0.31326
788.83279	0.31282
786.90410	0.31622
784.97542	0.31524
783.04673	0.31050
781.11804	0.30843
779.18936	0.30847
777.26067	0.30702
775.33198	0.30523
773.40330	0.30571
771.47461	0.30755
769.54592	0.30961
767.61724	0.31126
765.68855	0.31007
763.75986	0.30856
761.83118	0.30994
759.90249	0.30909
757.97380	0.30466
756.04512	0.30141
754.11643	0.29928
752.18774	0.29731
750.25906	0.29689
748.33037	0.29667
746.40168	0.29478
744.47300	0.29127
742.54431	0.28753
740.61562	0.28797
738.68694	0.29209
736.75825	0.29497
734.82957	0.29787
732.90088	0.30003
730.97219	0.29683
729.04351	0.29228
727.11482	0.29142
725.18613	0.28955
723.25745	0.28391
721.32876	0.27978
719.40007	0.28052
717.47139	0.28446
715.54270	0.28814
713.61401	0.28970
711.68533	0.28851
709.75664	0.28550
707.82795	0.28351
705.89927	0.28246
703.97058	0.28185
702.04189	0.28313
700.11321	0.28524
698.18452	0.28499
696.25583	0.28174
694.32715	0.27905
692.39846	0.28087
690.46978	0.28678
688.54109	0.29215
686.61240	0.29181
684.68372	0.28705
682.75503	0.28405
680.82634	0.28133
678.89766	0.27743
676.96897	0.27901
675.04028	0.28570
673.11160	0.28923
671.18291	0.29050
669.25422	0.29631
667.32554	0.30012
665.39685	0.29602
663.46816	0.29173
661.53948	0.28984
659.61079	0.29110
657.68210	0.29447
655.75342	0.29466
653.82473	0.29302
651.89604	0.29172
649.96736	0.29257
648.03867	0.29623
646.10999	0.29650
644.18130	0.29190
642.25261	0.28747
640.32393	0.28252
638.39524	0.27668
636.46655	0.27150
634.53787	0.26666
632.60918	0.26670
630.68049	0.27282
628.75181	0.28015
626.82312	0.28338
624.89443	0.28204
622.96575	0.28185
621.03706	0.28211
619.10837	0.28464
617.17969	0.28923
615.25100	0.28481
613.32231	0.27559
611.39363	0.27284
609.46494	0.27353
607.53625	0.27170
605.60757	0.27128
603.67888	0.27741
601.75020	0.28264
599.82151	0.27975
597.89282	0.27423
595.96414	0.26857
594.03545	0.26167
592.10676	0.25972
590.17808	0.26111
588.24939	0.26045
586.32070	0.25844
584.39202	0.24846
582.46333	0.23613
580.53464	0.24013
578.60596	0.25435
576.67727	0.26414
574.74858	0.26707
572.81990	0.25405
570.89121	0.23067
568.96252	0.22143
567.03384	0.22715
565.10515	0.24056
563.17646	0.24762
561.24778	0.23035
559.31909	0.21262
557.39041	0.21685
555.46172	0.22052
553.53303	0.20991
551.60435	0.19929
549.67566	0.19980
547.74697	0.21261
545.81829	0.20015
543.88960	0.14102
541.96091	0.11066
540.03223	0.13540
538.10354	0.16488
536.17485	0.17871
534.24617	0.16568
532.31748	0.11462
530.38879	0.06777
528.46011	0.07369
526.53142	0.08929
524.60273	0.04702
522.67405	0.00875
520.74536	0.07957
518.81667	0.22887
516.88799	0.31618
514.95930	0.32913
513.03062	0.43046
511.10193	0.63134
509.17324	0.52458
507.24456	-0.00732
505.31587	-0.37889
503.38718	-0.56120
501.45850	-0.68669
499.52981	-0.44943
497.60112	-0.12218
495.67244	0.02851
493.74375	0.56983
491.81506	0.56983
489.88638	0.56983
487.95769	1.63995
486.02900	1.14150
484.10032	3.08443
482.17163	-3.88030
480.24294	-3.21965
478.31426	0.98898
476.38557	0.53396
474.45688	1.02789
472.52820	1.25017
470.59951	1.32118
468.67083	1.83025
466.74214	2.22367
464.81345	1.17810
462.88477	0.67691
460.95608	1.13844
459.02739	1.40907
457.09871	0.89968
455.17002	0.70555
453.24133	1.02842
451.31265	1.00046
449.38396	0.83436
447.45527	1.26654
445.52659	1.94214
443.59790	1.77459
441.66921	1.30935
439.74053	0.96427
437.81184	0.39012
435.88315	-0.10774
433.95447	0.00204
432.02578	0.63128
430.09709	1.21558
428.16841	1.30225
426.23972	1.42860
424.31104	1.96338
422.38235	1.96338
420.45366	-1.44843
418.52498	0.12585
416.59629	0.92885
414.66760	2.77513
412.73892	2.82289
410.81023	2.31480
408.88154	8.61839
406.95286	8.61839
405.02417	8.61839
403.09548	5.16450
401.16680	0.46292
399.23811	0.49755
