3996.23848	0.65364
3994.30979	0.65423
3992.38110	0.65155
3990.45242	0.64503
3988.52373	0.64044
3986.59504	0.64566
3984.66636	0.65428
3982.73767	0.65461
3980.80898	0.65139
3978.88030	0.65217
3976.95161	0.65339
3975.02292	0.65728
3973.09424	0.66700
3971.16555	0.67119
3969.23687	0.66805
3967.30818	0.66770
3965.37949	0.66495
3963.45081	0.65653
3961.52212	0.65428
3959.59343	0.65891
3957.66475	0.66170
3955.73606	0.66296
3953.80737	0.66647
3951.87869	0.67273
3949.95000	0.67625
3948.02131	0.67084
3946.09263	0.66433
3944.16394	0.66509
3942.23525	0.66572
3940.30657	0.66239
3938.37788	0.66282
3936.44919	0.66738
3934.52051	0.66910
3932.59182	0.66773
3930.66313	0.66611
3928.73445	0.66433
3926.80576	0.66286
3924.87708	0.66276
3922.94839	0.66543
3921.01970	0.66601
3919.09102	0.65903
3917.16233	0.65307
3915.23364	0.65451
3913.30496	0.65823
3911.37627	0.66106
3909.44758	0.66015
3907.51890	0.65548
3905.59021	0.65596
3903.66152	0.66296
3901.73284	0.66461
3899.80415	0.66015
3897.87546	0.66068
3895.94678	0.66317
3894.01809	0.65813
3892.08940	0.65302
3890.16072	0.65697
3888.23203	0.66321
3886.30334	0.66436
3884.37466	0.66047
3882.44597	0.65572
3880.51729	0.65623
3878.58860	0.66042
3876.65991	0.66040
3874.73123	0.65605
3872.80254	0.65592
3870.87385	0.66222
3868.94517	0.66601
3867.01648	0.66207
3865.08779	0.65707
3863.15911	0.65823
3861.23042	0.66175
3859.30173	0.65897
3857.37305	0.65017
3855.44436	0.64561
3853.51567	0.65183
3851.58699	0.66205
3849.65830	0.66734
3847.72961	0.66381
3845.80093	0.65569
3843.87224	0.65370
3841.94355	0.65446
3840.01487	0.65093
3838.08618	0.65102
3836.15750	0.65720
3834.22881	0.66121
3832.30012	0.65917
3830.37144	0.65355
3828.44275	0.65132
3826.51406	0.65577
3824.58538	0.65852
3822.65669	0.65400
3820.72800	0.64872
3818.79932	0.64661
3816.87063	0.64841
3814.94194	0.65451
3813.01326	0.65737
3811.08457	0.65566
3809.15588	0.65838
3807.22720	0.66484
3805.29851	0.66726
3803.36982	0.66718
3801.44114	0.66860
3799.51245	0.66827
3797.58376	0.66643
3795.65508	0.66615
3793.72639	0.66421
3791.79771	0.66072
3789.86902	0.66069
3787.94033	0.66531
3786.01165	0.66920
3784.08296	0.66619
3782.15427	0.66227
3780.22559	0.66290
3778.29690	0.66055
3776.36821	0.65567
3774.43953	0.65649
3772.51084	0.66046
3770.58215	0.66315
3768.65347	0.66545
3766.72478	0.66426
3764.79609	0.65779
3762.86741	0.65179
3760.93872	0.64903
3759.01003	0.64825
3757.08135	0.65038
3755.15266	0.65458
3753.22397	0.65677
3751.29529	0.65672
3749.36660	0.66023
3747.43792	0.66590
3745.50923	0.66538
3743.58054	0.66331
3741.65186	0.66571
3739.72317	0.66556
3737.79448	0.66217
3735.86580	0.66059
3733.93711	0.65900
3732.00842	0.65889
3730.07974	0.66398
3728.15105	0.66910
3726.22236	0.66814
3724.29368	0.66345
3722.36499	0.65966
3720.43630	0.65915
3718.50762	0.66120
3716.57893	0.66243
3714.65024	0.66216
3712.72156	0.66086
3710.79287	0.65903
3708.86418	0.66088
3706.93550	0.66859
3705.00681	0.67529
3703.07812	0.67150
3701.14944	0.66046
3699.22075	0.65469
3697.29207	0.65616
3695.36338	0.65607
3693.43469	0.64972
3691.50601	0.64498
3689.57732	0.65114
3687.64863	0.65957
3685.71995	0.65866
3683.79126	0.65756
3681.86257	0.66463
3679.93389	0.66913
3678.00520	0.66491
3676.07651	0.66222
3674.14783	0.66439
3672.21914	0.66246
3670.29045	0.65753
3668.36177	0.65585
3666.43308	0.65609
3664.50439	0.65906
3662.57571	0.66533
3660.64702	0.66850
3658.71833	0.66717
3656.78965	0.66814
3654.86096	0.66907
3652.93228	0.66201
3651.00359	0.65435
3649.07490	0.65387
3647.14622	0.65401
3645.21753	0.65229
3643.28884	0.65292
3641.36016	0.65435
3639.43147	0.65267
3637.50278	0.65123
3635.57410	0.65468
3633.64541	0.65818
3631.71672	0.65710
3629.78804	0.65441
3627.85935	0.65303
3625.93066	0.65352
3624.00198	0.65264
3622.07329	0.64813
3620.14460	0.64374
3618.21592	0.64491
3616.28723	0.65110
3614.35854	0.65347
3612.42986	0.65137
3610.50117	0.65064
3608.57249	0.65150
3606.64380	0.65555
3604.71511	0.65925
3602.78643	0.65864
3600.85774	0.65782
3598.92905	0.65540
3597.00037	0.64877
3595.07168	0.64276
3593.14299	0.64215
3591.21431	0.64564
3589.28562	0.64910
3587.35693	0.64981
3585.42825	0.64915
3583.49956	0.65148
3581.57087	0.65548
3579.64219	0.65791
3577.71350	0.65645
3575.78481	0.64797
3573.85613	0.63891
3571.92744	0.63806
3569.99875	0.64353
3568.07007	0.64875
3566.14138	0.64968
3564.21270	0.64992
3562.28401	0.65591
3560.35532	0.66282
3558.42664	0.66303
3556.49795	0.65942
3554.56926	0.65602
3552.64058	0.65340
3550.71189	0.65195
3548.78320	0.65257
3546.85452	0.65581
3544.92583	0.65759
3542.99714	0.65396
3541.06846	0.64953
3539.13977	0.64734
3537.21108	0.64400
3535.28240	0.64266
3533.35371	0.64789
3531.42502	0.65550
3529.49634	0.65962
3527.56765	0.65998
3525.63896	0.66157
3523.71028	0.66396
3521.78159	0.66134
3519.85291	0.65484
3517.92422	0.64917
3515.99553	0.64589
3514.06685	0.64605
3512.13816	0.64999
3510.20947	0.65435
3508.28079	0.65586
3506.35210	0.65661
3504.42341	0.66037
3502.49473	0.66559
3500.56604	0.66645
3498.63735	0.66040
3496.70867	0.65170
3494.77998	0.64757
3492.85129	0.65038
3490.92261	0.65617
3488.99392	0.66029
3487.06523	0.66305
3485.13655	0.66668
3483.20786	0.66847
3481.27917	0.66696
3479.35049	0.66495
3477.42180	0.66130
3475.49312	0.65395
3473.56443	0.64813
3471.63574	0.64686
3469.70706	0.64626
3467.77837	0.64714
3465.84968	0.64890
3463.92100	0.64864
3461.99231	0.64948
3460.06362	0.65168
3458.13494	0.65465
3456.20625	0.65897
3454.27756	0.66095
3452.34888	0.65972
3450.42019	0.66048
3448.49150	0.66363
3446.56282	0.66240
3444.63413	0.65806
3442.70544	0.65556
3440.77676	0.65407
3438.84807	0.65534
3436.91938	0.65906
3434.99070	0.65719
3433.06201	0.65015
3431.13333	0.65053
3429.20464	0.65868
3427.27595	0.66372
3425.34727	0.66285
3423.41858	0.65920
3421.48989	0.65842
3419.56121	0.66251
3417.63252	0.66646
3415.70383	0.66691
3413.77515	0.66419
3411.84646	0.66132
3409.91777	0.66097
3407.98909	0.66415
3406.06040	0.66984
3404.13171	0.67301
3402.20303	0.67169
3400.27434	0.67008
3398.34565	0.66779
3396.41697	0.65997
3394.48828	0.64816
3392.55959	0.63894
3390.63091	0.63692
3388.70222	0.64173
3386.77354	0.64957
3384.84485	0.65614
3382.91616	0.66040
3380.98748	0.66402
3379.05879	0.66237
3377.13010	0.65471
3375.20142	0.65053
3373.27273	0.65323
3371.34404	0.65882
3369.41536	0.66300
3367.48667	0.66430
3365.55798	0.66112
3363.62930	0.65536
3361.70061	0.65561
3359.77192	0.66075
3357.84324	0.66303
3355.91455	0.66229
3353.98586	0.66137
3352.05718	0.66394
3350.12849	0.67039
3348.19980	0.67289
3346.27112	0.66907
3344.34243	0.66790
3342.41375	0.67200
3340.48506	0.67585
3338.55637	0.67893
3336.62769	0.68155
3334.69900	0.67640
3332.77031	0.66349
3330.84163	0.65854
3328.91294	0.66564
3326.98425	0.66991
3325.05557	0.66513
3323.12688	0.65961
3321.19819	0.65744
3319.26951	0.65384
3317.34082	0.64928
3315.41213	0.65077
3313.48345	0.66005
3311.55476	0.66988
3309.62607	0.67277
3307.69739	0.66802
3305.76870	0.65840
3303.84001	0.65030
3301.91133	0.65169
3299.98264	0.66138
3298.05396	0.66644
3296.12527	0.65985
3294.19658	0.65259
3292.26790	0.65410
3290.33921	0.66039
3288.41052	0.66251
3286.48184	0.65608
3284.55315	0.64830
3282.62446	0.64856
3280.69578	0.65492
3278.76709	0.65942
3276.83840	0.66034
3274.90972	0.66122
3272.98103	0.66380
3271.05234	0.66808
3269.12366	0.67448
3267.19497	0.67973
3265.26628	0.67497
3263.33760	0.66121
3261.40891	0.65143
3259.48022	0.65271
3257.55154	0.66028
3255.62285	0.66408
3253.69417	0.66341
3251.76548	0.66526
3249.83679	0.66591
3247.90811	0.66161
3245.97942	0.66168
3244.05073	0.66991
3242.12205	0.67621
3240.19336	0.67430
3238.26467	0.66887
3236.33599	0.66568
3234.40730	0.66399
3232.47861	0.66182
3230.54993	0.66263
3228.62124	0.66513
3226.69255	0.66356
3224.76387	0.65948
3222.83518	0.65841
3220.90649	0.66285
3218.97781	0.66918
3217.04912	0.67170
3215.12043	0.66822
3213.19175	0.65995
3211.26306	0.65432
3209.33437	0.65741
3207.40569	0.66195
3205.47700	0.65973
3203.54832	0.65643
3201.61963	0.65707
3199.69094	0.65794
3197.76226	0.65778
3195.83357	0.65874
3193.90488	0.66198
3191.97620	0.66303
3190.04751	0.66052
3188.11882	0.66213
3186.19014	0.66475
3184.26145	0.66114
3182.33276	0.65686
3180.40408	0.65692
3178.47539	0.65915
3176.54670	0.65879
3174.61802	0.65579
3172.68933	0.65443
3170.76064	0.65502
3168.83196	0.65686
3166.90327	0.65847
3164.97458	0.65787
3163.04590	0.65491
3161.11721	0.65142
3159.18853	0.65351
3157.25984	0.66122
3155.33115	0.66555
3153.40247	0.66238
3151.47378	0.65641
3149.54509	0.65599
3147.61641	0.66185
3145.68772	0.66551
3143.75903	0.66523
3141.83035	0.66484
3139.90166	0.66296
3137.97297	0.66152
3136.04429	0.66534
3134.11560	0.66894
3132.18691	0.66858
3130.25823	0.66929
3128.32954	0.67037
3126.40085	0.66887
3124.47217	0.66531
3122.54348	0.66217
3120.61479	0.66190
3118.68611	0.66094
3116.75742	0.65859
3114.82874	0.65924
3112.90005	0.66250
3110.97136	0.66461
3109.04268	0.66186
3107.11399	0.65797
3105.18530	0.65835
3103.25662	0.65948
3101.32793	0.66202
3099.39924	0.66798
3097.47056	0.67206
3095.54187	0.67227
3093.61318	0.66943
3091.68450	0.66748
3089.75581	0.66764
3087.82712	0.66350
3085.89844	0.65905
3083.96975	0.66015
3082.04106	0.66322
3080.11238	0.66865
3078.18369	0.67601
3076.25500	0.67940
3074.32632	0.67568
3072.39763	0.66910
3070.46895	0.66710
3068.54026	0.66881
3066.61157	0.66932
3064.68289	0.66924
3062.75420	0.66812
3060.82551	0.66299
3058.89683	0.65769
3056.96814	0.65954
3055.03945	0.66558
3053.11077	0.66636
3051.18208	0.66193
3049.25339	0.65802
3047.32471	0.65551
3045.39602	0.65478
3043.46733	0.65478
3041.53865	0.65226
3039.60996	0.65077
3037.68127	0.65367
3035.75259	0.65629
3033.82390	0.65647
3031.89521	0.65628
3029.96653	0.65578
3028.03784	0.65592
3026.10916	0.65543
3024.18047	0.65168
3022.25178	0.64999
3020.32310	0.65368
3018.39441	0.65844
3016.46572	0.66318
3014.53704	0.66798
3012.60835	0.66894
3010.67966	0.66613
3008.75098	0.66651
3006.82229	0.67008
3004.89360	0.66905
3002.96492	0.66572
3001.03623	0.66521
2999.10754	0.66425
2997.17886	0.66059
2995.25017	0.65580
2993.32148	0.65458
2991.39280	0.65898
2989.46411	0.66277
2987.53542	0.66157
2985.60674	0.65755
2983.67805	0.65529
2981.74937	0.65724
2979.82068	0.66107
2977.89199	0.66178
2975.96331	0.66108
2974.03462	0.66703
2972.10593	0.67425
2970.17725	0.67363
2968.24856	0.67125
2966.31987	0.67060
2964.39119	0.66733
2962.46250	0.66179
2960.53381	0.65747
2958.60513	0.65495
2956.67644	0.65524
2954.74775	0.65899
2952.81907	0.66004
2950.89038	0.65392
2948.96169	0.64653
2947.03301	0.64506
2945.10432	0.64732
2943.17563	0.64798
2941.24695	0.64911
2939.31826	0.65533
2937.38958	0.66339
2935.46089	0.66471
2933.53220	0.65990
2931.60352	0.65665
2929.67483	0.65721
2927.74614	0.65882
2925.81746	0.65809
2923.88877	0.65648
2921.96008	0.65868
2920.03140	0.66391
2918.10271	0.66481
2916.17402	0.65908
2914.24534	0.65555
2912.31665	0.65922
2910.38796	0.66556
2908.45928	0.66893
2906.53059	0.66767
2904.60190	0.66373
2902.67322	0.65899
2900.74453	0.65729
2898.81584	0.65982
2896.88716	0.66217
2894.95847	0.66401
2893.02979	0.66549
2891.10110	0.66471
2889.17241	0.66454
2887.24373	0.66506
2885.31504	0.66417
2883.38635	0.66429
2881.45767	0.66312
2879.52898	0.65771
2877.60029	0.65455
2875.67161	0.65766
2873.74292	0.66379
2871.81423	0.66979
2869.88555	0.67146
2867.95686	0.66813
2866.02817	0.66513
2864.09949	0.66208
2862.17080	0.65714
2860.24211	0.65625
2858.31343	0.66141
2856.38474	0.66580
2854.45605	0.66562
2852.52737	0.66340
2850.59868	0.66125
2848.67000	0.66048
2846.74131	0.66297
2844.81262	0.66706
2842.88394	0.66852
2840.95525	0.66733
2839.02656	0.66641
2837.09788	0.66611
2835.16919	0.66606
2833.24050	0.66654
2831.31182	0.66650
2829.38313	0.66476
2827.45444	0.66138
2825.52576	0.65790
2823.59707	0.65461
2821.66838	0.65005
2819.73970	0.64709
2817.81101	0.64879
2815.88232	0.65232
2813.95364	0.65675
2812.02495	0.66137
2810.09626	0.66339
2808.16758	0.66523
2806.23889	0.66715
2804.31021	0.66660
2802.38152	0.66646
2800.45283	0.66654
2798.52415	0.66437
2796.59546	0.66250
2794.66677	0.66171
2792.73809	0.66211
2790.80940	0.66581
2788.88071	0.67016
2786.95203	0.67188
2785.02334	0.67159
2783.09465	0.66792
2781.16597	0.66016
2779.23728	0.65567
2777.30859	0.66047
2775.37991	0.66731
2773.45122	0.66734
2771.52253	0.66399
2769.59385	0.66135
2767.66516	0.65782
2765.73647	0.65704
2763.80779	0.66124
2761.87910	0.66353
2759.95042	0.66330
2758.02173	0.66509
2756.09304	0.66681
2754.16436	0.66601
2752.23567	0.66444
2750.30698	0.66361
2748.37830	0.66352
2746.44961	0.66588
2744.52092	0.67016
2742.59224	0.67120
2740.66355	0.66778
2738.73486	0.66347
2736.80618	0.66133
2734.87749	0.66086
2732.94880	0.65908
2731.02012	0.65776
2729.09143	0.66091
2727.16274	0.66501
2725.23406	0.66401
2723.30537	0.65989
2721.37668	0.65898
2719.44800	0.66328
2717.51931	0.66877
2715.59062	0.67182
2713.66194	0.67247
2711.73325	0.66894
2709.80457	0.66119
2707.87588	0.65423
2705.94719	0.65168
2704.01851	0.65470
2702.08982	0.66178
2700.16113	0.66649
2698.23245	0.66540
2696.30376	0.66374
2694.37507	0.66381
2692.44639	0.66254
2690.51770	0.66256
2688.58901	0.66491
2686.66033	0.66425
2684.73164	0.66050
2682.80295	0.65631
2680.87427	0.65313
2678.94558	0.65436
2677.01689	0.66001
2675.08821	0.66612
2673.15952	0.66954
2671.23083	0.66833
2669.30215	0.66435
2667.37346	0.66212
2665.44478	0.66319
2663.51609	0.66583
2661.58740	0.66699
2659.65872	0.66521
2657.73003	0.66295
2655.80134	0.66194
2653.87266	0.66076
2651.94397	0.65912
2650.01528	0.65935
2648.08660	0.66200
2646.15791	0.66426
2644.22922	0.66337
2642.30054	0.65970
2640.37185	0.65825
2638.44316	0.66146
2636.51448	0.66488
2634.58579	0.66532
2632.65710	0.66419
2630.72842	0.66444
2628.79973	0.66582
2626.87104	0.66664
2624.94236	0.66824
2623.01367	0.67027
2621.08499	0.67183
2619.15630	0.67269
2617.22761	0.66952
2615.29893	0.66440
2613.37024	0.66400
2611.44155	0.66531
2609.51287	0.66231
2607.58418	0.65853
2605.65549	0.65919
2603.72681	0.66224
2601.79812	0.66206
2599.86943	0.65794
2597.94075	0.65419
2596.01206	0.65368
2594.08337	0.65738
2592.15469	0.66373
2590.22600	0.66695
2588.29731	0.66445
2586.36863	0.66147
2584.43994	0.66166
2582.51125	0.66326
2580.58257	0.66481
2578.65388	0.66470
2576.72520	0.66166
2574.79651	0.66013
2572.86782	0.66345
2570.93914	0.66560
2569.01045	0.66297
2567.08176	0.65986
2565.15308	0.65883
2563.22439	0.66224
2561.29570	0.66968
2559.36702	0.67244
2557.43833	0.66779
2555.50964	0.66495
2553.58096	0.66780
2551.65227	0.66995
2549.72358	0.66824
2547.79490	0.66569
2545.86621	0.66502
2543.93752	0.66570
2542.00884	0.66468
2540.08015	0.66320
2538.15146	0.66516
2536.22278	0.66745
2534.29409	0.66504
2532.36541	0.65999
2530.43672	0.65774
2528.50803	0.66127
2526.57935	0.66791
2524.65066	0.67059
2522.72197	0.66718
2520.79329	0.66316
2518.86460	0.66277
2516.93591	0.66541
2515.00723	0.66917
2513.07854	0.67027
2511.14985	0.66726
2509.22117	0.66513
2507.29248	0.66637
2505.36379	0.66938
2503.43511	0.67201
2501.50642	0.67074
2499.57773	0.66766
2497.64905	0.66741
2495.72036	0.66682
2493.79167	0.66357
2491.86299	0.66170
2489.93430	0.66320
2488.00562	0.66503
2486.07693	0.66439
2484.14824	0.66414
2482.21956	0.66669
2480.29087	0.66785
2478.36218	0.66715
2476.43350	0.66991
2474.50481	0.67507
2472.57612	0.67489
2470.64744	0.66661
2468.71875	0.65869
2466.79006	0.66002
2464.86138	0.66652
2462.93269	0.66925
2461.00400	0.66680
2459.07532	0.66234
2457.14663	0.66020
2455.21794	0.66351
2453.28926	0.66960
2451.36057	0.67393
2449.43188	0.67503
2447.50320	0.67340
2445.57451	0.67054
2443.64583	0.66730
2441.71714	0.66428
2439.78845	0.66251
2437.85977	0.66180
2435.93108	0.66149
2434.00239	0.66079
2432.07371	0.66058
2430.14502	0.66260
2428.21633	0.66426
2426.28765	0.66189
2424.35896	0.65885
2422.43027	0.66177
2420.50159	0.66726
2418.57290	0.66853
2416.64421	0.66821
2414.71553	0.66834
2412.78684	0.66752
2410.85815	0.66773
2408.92947	0.66811
2407.00078	0.66724
2405.07209	0.66845
2403.14341	0.66982
2401.21472	0.66686
2399.28604	0.66252
2397.35735	0.66112
2395.42866	0.66337
2393.49998	0.66668
2391.57129	0.66857
2389.64260	0.66885
2387.71392	0.66818
2385.78523	0.66807
2383.85654	0.66751
2381.92786	0.66575
2379.99917	0.66385
2378.07048	0.66230
2376.14180	0.66232
2374.21311	0.66159
2372.28442	0.65847
2370.35574	0.65714
2368.42705	0.65731
2366.49836	0.65482
2364.56968	0.65271
2362.64099	0.65441
2360.71230	0.65507
2358.78362	0.65324
2356.85493	0.65413
2354.92625	0.65841
2352.99756	0.66212
2351.06887	0.66357
2349.14019	0.66377
2347.21150	0.66272
2345.28281	0.66031
2343.35413	0.65703
2341.42544	0.65531
2339.49675	0.65826
2337.56807	0.66289
2335.63938	0.66413
2333.71069	0.66255
2331.78201	0.66189
2329.85332	0.66253
2327.92463	0.66309
2325.99595	0.66392
2324.06726	0.66448
2322.13857	0.66462
2320.20989	0.66409
2318.28120	0.66331
2316.35251	0.66438
2314.42383	0.66507
2312.49514	0.66253
2310.56646	0.65980
2308.63777	0.65988
2306.70908	0.66082
2304.78040	0.66071
2302.85171	0.66102
2300.92302	0.66252
2298.99434	0.66328
2297.06565	0.66272
2295.13696	0.66362
2293.20828	0.66531
2291.27959	0.66466
2289.35090	0.66359
2287.42222	0.66466
2285.49353	0.66606
2283.56484	0.66424
2281.63616	0.66073
2279.70747	0.66121
2277.77878	0.66501
2275.85010	0.66793
2273.92141	0.66883
2271.99272	0.66767
2270.06404	0.66591
2268.13535	0.66557
2266.20667	0.66667
2264.27798	0.66767
2262.34929	0.66860
2260.42061	0.66982
2258.49192	0.66718
2256.56323	0.66125
2254.63455	0.66093
2252.70586	0.66717
2250.77717	0.67103
2248.84849	0.66964
2246.91980	0.66902
2244.99111	0.66930
2243.06243	0.66524
2241.13374	0.66115
2239.20505	0.66270
2237.27637	0.66514
2235.34768	0.66638
2233.41899	0.66978
2231.49031	0.67123
2229.56162	0.66891
2227.63293	0.66828
2225.70425	0.66855
2223.77556	0.66656
2221.84687	0.66257
2219.91819	0.65906
2217.98950	0.66056
2216.06082	0.66531
2214.13213	0.66741
2212.20344	0.66806
2210.27476	0.66942
2208.34607	0.67064
2206.41738	0.67147
2204.48870	0.66990
2202.56001	0.66683
2200.63132	0.66586
2198.70264	0.66586
2196.77395	0.66572
2194.84526	0.66634
2192.91658	0.66617
2190.98789	0.66483
2189.05920	0.66518
2187.13052	0.66798
2185.20183	0.67140
2183.27314	0.67375
2181.34446	0.67358
2179.41577	0.67045
2177.48708	0.66542
2175.55840	0.66195
2173.62971	0.66231
2171.70103	0.66481
2169.77234	0.66725
2167.84365	0.66744
2165.91497	0.66490
2163.98628	0.66186
2162.05759	0.66002
2160.12891	0.65986
2158.20022	0.66101
2156.27153	0.66223
2154.34285	0.66235
2152.41416	0.66136
2150.48547	0.65997
2148.55679	0.65929
2146.62810	0.66047
2144.69941	0.66261
2142.77073	0.66374
2140.84204	0.66373
2138.91335	0.66379
2136.98467	0.66600
2135.05598	0.67062
2133.12729	0.67286
2131.19861	0.67019
2129.26992	0.66606
2127.34124	0.66431
2125.41255	0.66595
2123.48386	0.66745
2121.55518	0.66706
2119.62649	0.66692
2117.69780	0.66666
2115.76912	0.66713
2113.84043	0.66950
2111.91174	0.67011
2109.98306	0.66768
2108.05437	0.66612
2106.12568	0.66779
2104.19700	0.66962
2102.26831	0.66817
2100.33962	0.66512
2098.41094	0.66251
2096.48225	0.66099
2094.55356	0.66263
2092.62488	0.66628
2090.69619	0.66754
2088.76750	0.66613
2086.83882	0.66568
2084.91013	0.66707
2082.98145	0.66811
2081.05276	0.66777
2079.12407	0.66626
2077.19539	0.66610
2075.26670	0.66956
2073.33801	0.67154
2071.40933	0.66810
2069.48064	0.66470
2067.55195	0.66481
2065.62327	0.66613
2063.69458	0.66713
2061.76589	0.66727
2059.83721	0.66758
2057.90852	0.66884
2055.97983	0.66917
2054.05115	0.66755
2052.12246	0.66545
2050.19377	0.66488
2048.26509	0.66544
2046.33640	0.66484
2044.40771	0.66362
2042.47903	0.66401
2040.55034	0.66609
2038.62166	0.66866
2036.69297	0.67021
2034.76428	0.67102
2032.83560	0.67318
2030.90691	0.67479
2028.97822	0.67133
2027.04954	0.66487
2025.12085	0.66291
2023.19216	0.66672
2021.26348	0.66991
2019.33479	0.66979
2017.40610	0.67108
2015.47742	0.67421
2013.54873	0.67311
2011.62004	0.66898
2009.69136	0.66733
2007.76267	0.66811
2005.83398	0.66925
2003.90530	0.66859
2001.97661	0.66538
2000.04792	0.66240
1998.11924	0.66328
1996.19055	0.66756
1994.26187	0.67116
1992.33318	0.67174
1990.40449	0.67053
1988.47581	0.67073
1986.54712	0.67195
1984.61843	0.67068
1982.68975	0.66648
1980.76106	0.66261
1978.83237	0.66398
1976.90369	0.66997
1974.97500	0.67344
1973.04631	0.67163
1971.11763	0.66815
1969.18894	0.66684
1967.26025	0.66888
1965.33157	0.67220
1963.40288	0.67202
1961.47419	0.66693
1959.54551	0.66268
1957.61682	0.66224
1955.68813	0.66104
1953.75945	0.65797
1951.83076	0.65744
1949.90208	0.66019
1947.97339	0.66291
1946.04470	0.66346
1944.11602	0.66183
1942.18733	0.66146
1940.25864	0.66566
1938.32996	0.66959
1936.40127	0.66837
1934.47258	0.66622
1932.54390	0.66689
1930.61521	0.66825
1928.68652	0.66742
1926.75784	0.66483
1924.82915	0.66382
1922.90046	0.66479
1920.97178	0.66545
1919.04309	0.66595
1917.11440	0.66652
1915.18572	0.66645
1913.25703	0.66710
1911.32834	0.66947
1909.39966	0.67226
1907.47097	0.67363
1905.54229	0.67229
1903.61360	0.66925
1901.68491	0.66794
1899.75623	0.66820
1897.82754	0.66678
1895.89885	0.66592
1893.97017	0.66837
1892.04148	0.67092
1890.11279	0.67026
1888.18411	0.66792
1886.25542	0.66779
1884.32673	0.66902
1882.39805	0.66802
1880.46936	0.66608
1878.54067	0.66658
1876.61199	0.66900
1874.68330	0.66946
1872.75461	0.66693
1870.82593	0.66556
1868.89724	0.66582
1866.96855	0.66319
1865.03987	0.65883
1863.11118	0.65790
1861.18250	0.66069
1859.25381	0.66405
1857.32512	0.66644
1855.39644	0.66835
1853.46775	0.66884
1851.53906	0.66761
1849.61038	0.66725
1847.68169	0.66692
1845.75300	0.66415
1843.82432	0.66129
1841.89563	0.66125
1839.96694	0.66172
1838.03826	0.66043
1836.10957	0.66066
1834.18088	0.66386
1832.25220	0.66530
1830.32351	0.66397
1828.39482	0.66463
1826.46614	0.66846
1824.53745	0.67176
1822.60876	0.67181
1820.68008	0.66943
1818.75139	0.66611
1816.82271	0.66461
1814.89402	0.66672
1812.96533	0.66695
1811.03665	0.66351
1809.10796	0.66342
1807.17927	0.66747
1805.25059	0.67000
1803.32190	0.66947
1801.39321	0.66731
1799.46453	0.66503
1797.53584	0.66454
1795.60715	0.66477
1793.67847	0.66416
1791.74978	0.66519
1789.82109	0.66797
1787.89241	0.66978
1785.96372	0.67046
1784.03503	0.66974
1782.10635	0.66686
1780.17766	0.66299
1778.24897	0.66014
1776.32029	0.66024
1774.39160	0.66373
1772.46292	0.66761
1770.53423	0.66765
1768.60554	0.66421
1766.67686	0.66259
1764.74817	0.66368
1762.81948	0.66344
1760.89080	0.66153
1758.96211	0.66073
1757.03342	0.66320
1755.10474	0.66655
1753.17605	0.66551
1751.24736	0.66261
1749.31868	0.66425
1747.38999	0.66827
1745.46130	0.66792
1743.53262	0.66438
1741.60393	0.66318
1739.67524	0.66364
1737.74656	0.66231
1735.81787	0.65879
1733.88918	0.65630
1731.96050	0.65806
1730.03181	0.66089
1728.10312	0.66042
1726.17444	0.65904
1724.24575	0.66013
1722.31707	0.66233
1720.38838	0.66311
1718.45969	0.66233
1716.53101	0.66172
1714.60232	0.66144
1712.67363	0.66030
1710.74495	0.65988
1708.81626	0.66139
1706.88757	0.66227
1704.95889	0.66030
1703.03020	0.65663
1701.10151	0.65300
1699.17283	0.65013
1697.24414	0.64881
1695.31545	0.65164
1693.38677	0.65848
1691.45808	0.66276
1689.52939	0.66282
1687.60071	0.66302
1685.67202	0.66221
1683.74333	0.65842
1681.81465	0.65542
1679.88596	0.65707
1677.95728	0.66061
1676.02859	0.66045
1674.09990	0.65850
1672.17122	0.65864
1670.24253	0.65984
1668.31384	0.66049
1666.38516	0.65922
1664.45647	0.65722
1662.52778	0.65748
1660.59910	0.65921
1658.67041	0.66072
1656.74172	0.65940
1654.81304	0.65380
1652.88435	0.65088
1650.95566	0.65420
1649.02698	0.65718
1647.09829	0.65887
1645.16960	0.66388
1643.24092	0.67041
1641.31223	0.67212
1639.38354	0.66821
1637.45486	0.66430
1635.52617	0.66411
1633.59749	0.66704
1631.66880	0.67088
1629.74011	0.67115
1627.81143	0.66682
1625.88274	0.66304
1623.95405	0.66151
1622.02537	0.66054
1620.09668	0.65882
1618.16799	0.65763
1616.23931	0.66102
1614.31062	0.66592
1612.38193	0.66687
1610.45325	0.66529
1608.52456	0.66228
1606.59587	0.65732
1604.66719	0.65465
1602.73850	0.65800
1600.80981	0.66221
1598.88113	0.66074
1596.95244	0.65542
1595.02375	0.65171
1593.09507	0.64901
1591.16638	0.64345
1589.23770	0.63943
1587.30901	0.64042
1585.38032	0.63941
1583.45164	0.63630
1581.52295	0.63928
1579.59426	0.64527
1577.66558	0.64762
1575.73689	0.64915
1573.80820	0.65081
1571.87952	0.65070
1569.95083	0.65139
1568.02214	0.65334
1566.09346	0.65327
1564.16477	0.65090
1562.23608	0.64878
1560.30740	0.64960
1558.37871	0.65405
1556.45002	0.65875
1554.52134	0.66091
1552.59265	0.66165
1550.66396	0.66202
1548.73528	0.66277
1546.80659	0.66368
1544.87791	0.66084
1542.94922	0.65464
1541.02053	0.65103
1539.09185	0.65263
1537.16316	0.65709
1535.23447	0.65816
1533.30579	0.65491
1531.37710	0.65531
1529.44841	0.66137
1527.51973	0.66541
1525.59104	0.66210
1523.66235	0.65554
1521.73367	0.65271
1519.80498	0.65500
1517.87629	0.65808
1515.94761	0.65884
1514.01892	0.65914
1512.09023	0.65909
1510.16155	0.65690
1508.23286	0.65456
1506.30417	0.65456
1504.37549	0.65791
1502.44680	0.66312
1500.51812	0.66556
1498.58943	0.66379
1496.66074	0.66196
1494.73206	0.66335
1492.80337	0.66700
1490.87468	0.66998
1488.94600	0.67115
1487.01731	0.67000
1485.08862	0.66486
1483.15994	0.65975
1481.23125	0.65918
1479.30256	0.65875
1477.37388	0.65679
1475.44519	0.65905
1473.51650	0.66443
1471.58782	0.66569
1469.65913	0.66422
1467.73044	0.66608
1465.80176	0.66948
1463.87307	0.66989
1461.94438	0.66639
1460.01570	0.66120
1458.08701	0.66076
1456.15833	0.66583
1454.22964	0.66747
1452.30095	0.66276
1450.37227	0.65802
1448.44358	0.65828
1446.51489	0.66248
1444.58621	0.66657
1442.65752	0.66764
1440.72883	0.66527
1438.80015	0.66222
1436.87146	0.66070
1434.94277	0.65934
1433.01409	0.65746
1431.08540	0.65647
1429.15671	0.65547
1427.22803	0.65336
1425.29934	0.65239
1423.37065	0.65309
1421.44197	0.65394
1419.51328	0.65578
1417.58459	0.65954
1415.65591	0.66346
1413.72722	0.66414
1411.79854	0.66126
1409.86985	0.66021
1407.94116	0.66334
1406.01248	0.66613
1404.08379	0.66590
1402.15510	0.66401
1400.22642	0.66149
1398.29773	0.65950
1396.36904	0.66022
1394.44036	0.66314
1392.51167	0.66542
1390.58298	0.66650
1388.65430	0.66577
1386.72561	0.66322
1384.79692	0.66293
1382.86824	0.66592
1380.93955	0.66716
1379.01086	0.66528
1377.08218	0.66340
1375.15349	0.66259
1373.22480	0.66323
1371.29612	0.66468
1369.36743	0.66531
1367.43875	0.66425
1365.51006	0.66188
1363.58137	0.66105
1361.65269	0.66139
1359.72400	0.65939
1357.79531	0.65712
1355.86663	0.65903
1353.93794	0.66217
1352.00925	0.66158
1350.08057	0.66084
1348.15188	0.66389
1346.22319	0.66666
1344.29451	0.66443
1342.36582	0.65979
1340.43713	0.65848
1338.50845	0.66047
1336.57976	0.66220
1334.65107	0.66287
1332.72239	0.66447
1330.79370	0.66661
1328.86501	0.66633
1326.93633	0.66465
1325.00764	0.66530
1323.07896	0.66865
1321.15027	0.67011
1319.22158	0.66627
1317.29290	0.66019
1315.36421	0.65698
1313.43552	0.65986
1311.50684	0.66680
1309.57815	0.66945
1307.64946	0.66465
1305.72078	0.66091
1303.79209	0.66272
1301.86340	0.66541
1299.93472	0.66612
1298.00603	0.66482
1296.07734	0.66404
1294.14866	0.66575
1292.21997	0.66649
1290.29128	0.66469
1288.36260	0.66304
1286.43391	0.66154
1284.50522	0.65905
1282.57654	0.65783
1280.64785	0.65915
1278.71917	0.66179
1276.79048	0.66453
1274.86179	0.66516
1272.93311	0.66345
1271.00442	0.66165
1269.07573	0.66095
1267.14705	0.66192
1265.21836	0.66334
1263.28967	0.66345
1261.36099	0.66365
1259.43230	0.66401
1257.50361	0.66218
1255.57493	0.65991
1253.64624	0.65960
1251.71755	0.66074
1249.78887	0.66406
1247.86018	0.66883
1245.93149	0.67107
1244.00281	0.67008
1242.07412	0.66928
1240.14543	0.66812
1238.21675	0.66456
1236.28806	0.66250
1234.35937	0.66416
1232.43069	0.66615
1230.50200	0.66720
1228.57332	0.66800
1226.64463	0.66791
1224.71594	0.66598
1222.78726	0.66308
1220.85857	0.66259
1218.92988	0.66459
1217.00120	0.66469
1215.07251	0.66084
1213.14382	0.65457
1211.21514	0.65028
1209.28645	0.65034
1207.35776	0.65259
1205.42908	0.65810
1203.50039	0.66606
1201.57170	0.66899
1199.64302	0.66545
1197.71433	0.66167
1195.78564	0.66137
1193.85696	0.66476
1191.92827	0.66955
1189.99958	0.66993
1188.07090	0.66426
1186.14221	0.66033
1184.21353	0.66256
1182.28484	0.66512
1180.35615	0.66494
1178.42747	0.66523
1176.49878	0.66666
1174.57009	0.66830
1172.64141	0.66974
1170.71272	0.67018
1168.78403	0.67031
1166.85535	0.67032
1164.92666	0.66899
1162.99797	0.66661
1161.06929	0.66406
1159.14060	0.66145
1157.21191	0.65997
1155.28323	0.66245
1153.35454	0.66716
1151.42585	0.66760
1149.49717	0.66410
1147.56848	0.66238
1145.63979	0.66493
1143.71111	0.66850
1141.78242	0.66634
1139.85374	0.66159
1137.92505	0.66288
1135.99636	0.66758
1134.06768	0.66997
1132.13899	0.66944
1130.21030	0.66695
1128.28162	0.66289
1126.35293	0.65799
1124.42424	0.65878
1122.49556	0.66593
1120.56687	0.66602
1118.63818	0.65777
1116.70950	0.65391
1114.78081	0.65587
1112.85212	0.66029
1110.92344	0.66600
1108.99475	0.66899
1107.06606	0.66844
1105.13738	0.66533
1103.20869	0.66262
1101.28000	0.66452
1099.35132	0.66733
1097.42263	0.66710
1095.49395	0.66702
1093.56526	0.66666
1091.63657	0.66217
1089.70789	0.65773
1087.77920	0.66017
1085.85051	0.66612
1083.92183	0.66782
1081.99314	0.66606
1080.06445	0.66439
1078.13577	0.66215
1076.20708	0.66064
1074.27839	0.66196
1072.34971	0.66389
1070.42102	0.66133
1068.49233	0.65519
1066.56365	0.65462
1064.63496	0.65960
1062.70627	0.66114
1060.77759	0.66067
1058.84890	0.66330
1056.92021	0.66220
1054.99153	0.65469
1053.06284	0.65207
1051.13416	0.65640
1049.20547	0.65816
1047.27678	0.65583
1045.34810	0.65401
1043.41941	0.65503
1041.49072	0.65866
1039.56204	0.66316
1037.63335	0.66713
1035.70466	0.66564
1033.77598	0.65698
1031.84729	0.65263
1029.91860	0.65828
1027.98992	0.66470
1026.06123	0.66760
1024.13254	0.66999
1022.20386	0.67008
1020.27517	0.66342
1018.34648	0.65546
1016.41780	0.65800
1014.48911	0.66687
1012.56042	0.66921
1010.63174	0.66780
1008.70305	0.66722
1006.77437	0.66438
1004.84568	0.66224
1002.91699	0.66063
1000.98831	0.65401
999.05962	0.64909
997.13093	0.65404
995.20225	0.66355
993.27356	0.67074
991.34487	0.67368
989.41619	0.67173
987.48750	0.66781
985.55881	0.66562
983.63013	0.66425
981.70144	0.66214
979.77275	0.66227
977.84407	0.66606
975.91538	0.66775
973.98669	0.66498
972.05801	0.66355
970.12932	0.66489
968.20063	0.66522
966.27195	0.66508
964.34326	0.66645
962.41458	0.66915
960.48589	0.67181
958.55720	0.67219
956.62852	0.66962
954.69983	0.66417
952.77114	0.65712
950.84246	0.65221
948.91377	0.65229
946.98508	0.65700
945.05640	0.66162
943.12771	0.66158
941.19902	0.65854
939.27034	0.65763
937.34165	0.66176
935.41296	0.66716
933.48428	0.66772
931.55559	0.66368
929.62690	0.66137
927.69822	0.66614
925.76953	0.67275
923.84084	0.67131
921.91216	0.66510
919.98347	0.66332
918.05479	0.66537
916.12610	0.66519
914.19741	0.66358
912.26873	0.66582
910.34004	0.66869
908.41135	0.66896
906.48267	0.67084
904.55398	0.67244
902.62529	0.67084
900.69661	0.67004
898.76792	0.66980
896.83923	0.66765
894.91055	0.66578
892.98186	0.66482
891.05317	0.66467
889.12449	0.66491
887.19580	0.66423
885.26711	0.66529
883.33843	0.66844
881.40974	0.67032
879.48105	0.67078
877.55237	0.67022
875.62368	0.66897
873.69500	0.66929
871.76631	0.67077
869.83762	0.66960
867.90894	0.66585
865.98025	0.66348
864.05156	0.66231
862.12288	0.65994
860.19419	0.65822
858.26550	0.65753
856.33682	0.65430
854.40813	0.65311
852.47944	0.66062
850.55076	0.66869
848.62207	0.66838
846.69338	0.66407
844.76470	0.66040
842.83601	0.65585
840.90732	0.64986
838.97864	0.64761
837.04995	0.65301
835.12126	0.65845
833.19258	0.65757
831.26389	0.65766
829.33521	0.66270
827.40652	0.66758
825.47783	0.67231
823.54915	0.67885
821.62046	0.68286
819.69177	0.67924
817.76309	0.66738
815.83440	0.65498
813.90571	0.65224
811.97703	0.65548
810.04834	0.65399
808.11965	0.65061
806.19097	0.65191
804.26228	0.65447
802.33359	0.65339
800.40491	0.64834
798.47622	0.64345
796.54753	0.64357
794.61885	0.64789
792.69016	0.65258
790.76147	0.65401
788.83279	0.65020
786.90410	0.64490
784.97542	0.64227
783.04673	0.64201
781.11804	0.64357
779.18936	0.64324
777.26067	0.63736
775.33198	0.63167
773.40330	0.62981
771.47461	0.62677
769.54592	0.61879
767.61724	0.60685
765.68855	0.59703
763.75986	0.59433
761.83118	0.59630
759.90249	0.60070
757.97380	0.60719
756.04512	0.61119
754.11643	0.60657
752.18774	0.59330
750.25906	0.57723
748.33037	0.56450
746.40168	0.56117
744.47300	0.56698
742.54431	0.57192
740.61562	0.57452
738.68694	0.57783
736.75825	0.57765
734.82957	0.57945
732.90088	0.58684
730.97219	0.58760
729.04351	0.57956
727.11482	0.57081
725.18613	0.56147
723.25745	0.55257
721.32876	0.55075
719.40007	0.55162
717.47139	0.54361
715.54270	0.53251
713.61401	0.53378
711.68533	0.54530
709.75664	0.55444
707.82795	0.55788
705.89927	0.55401
703.97058	0.54383
702.04189	0.53966
700.11321	0.54712
698.18452	0.55833
696.25583	0.56330
694.32715	0.55945
692.39846	0.55278
690.46978	0.54592
688.54109	0.54231
686.61240	0.54957
684.68372	0.56279
682.75503	0.57419
680.82634	0.57909
678.89766	0.56610
676.96897	0.54504
675.04028	0.53772
673.11160	0.53814
671.18291	0.53253
669.25422	0.52556
667.32554	0.52784
665.39685	0.53756
663.46816	0.54472
661.53948	0.54514
659.61079	0.54544
657.68210	0.55333
655.75342	0.56135
653.82473	0.56076
651.89604	0.55699
649.96736	0.55678
648.03867	0.56040
646.10999	0.56376
644.18130	0.56499
642.25261	0.56527
640.32393	0.56608
638.39524	0.56702
636.46655	0.56329
634.53787	0.56225
632.60918	0.57083
630.68049	0.58158
628.75181	0.59497
626.82312	0.60700
624.89443	0.60189
622.96575	0.58250
621.03706	0.57094
619.10837	0.57483
617.17969	0.57534
615.25100	0.56596
613.32231	0.55622
611.39363	0.54562
609.46494	0.53688
607.53625	0.53723
605.60757	0.54591
603.67888	0.54845
601.75020	0.52775
599.82151	0.49479
597.89282	0.48367
595.96414	0.50346
594.03545	0.52279
592.10676	0.51433
590.17808	0.49360
588.24939	0.49118
586.32070	0.49774
584.39202	0.48679
582.46333	0.46897
580.53464	0.46406
578.60596	0.48600
576.67727	0.52521
574.74858	0.53193
572.81990	0.48457
570.89121	0.40677
568.96252	0.34465
567.03384	0.34136
565.10515	0.37922
563.17646	0.40872
561.24778	0.40904
559.31909	0.38246
557.39041	0.33217
555.46172	0.26362
553.53303	0.20145
551.60435	0.18231
549.67566	0.21517
547.74697	0.24439
545.81829	0.22304
543.88960	0.17817
541.96091	0.14953
540.03223	0.14675
538.10354	0.14935
536.17485	0.10251
534.24617	-0.00908
532.31748	-0.07843
530.38879	-0.04408
528.46011	0.02723
526.53142	0.07625
524.60273	0.09830
522.67405	0.13947
520.74536	0.20538
518.81667	0.34662
516.88799	0.61313
514.95930	0.58164
513.03062	0.30654
511.10193	0.13427
509.17324	-0.09707
507.24456	-0.41234
505.31587	-0.55309
503.38718	-0.33074
501.45850	0.11883
499.52981	0.65987
497.60112	2.19464
495.67244	7.32263
493.74375	22.10602
491.81506	7.84153
489.88638	2.08765
487.95769	1.00074
486.02900	0.43287
484.10032	-0.07486
482.17163	-0.31849
480.24294	-0.16054
478.31426	0.81345
476.38557	2.50027
474.45688	0.75531
472.52820	0.20579
470.59951	0.07125
468.67083	-0.38771
466.74214	-1.09146
464.81345	-0.86498
462.88477	0.31755
460.95608	0.92339
459.02739	0.81166
457.09871	1.44629
455.17002	1.69354
453.24133	1.43144
451.31265	1.81598
449.38396	-2.60377
447.45527	-2.60377
445.52659	1.59715
443.59790	1.47922
441.66921	1.77088
439.74053	1.58903
437.81184	1.14158
435.88315	0.99825
433.95447	0.69815
432.02578	0.43042
430.09709	0.55473
428.16841	1.87064
426.23972	-5.46643
424.31104	-5.46643
422.38235	2.10151
420.45366	2.10151
418.52498	-3.51469
416.59629	-3.91072
414.66760	-3.61824
412.73892	-1.54426
410.81023	-1.54426
408.88154	-0.52386
406.95286	0.46037
405.02417	0.46037
403.09548	-0.80859
401.16680	-0.80859
399.23811	5.33105
